time,f1,b1,f2,b2,f3,b3,f1p,f2p,f3p,f0,intensity,harmonicity
0.026000,501.4,110.0,1968.1,86.0,2824.2,60.5,513.3,1992,2823.3,284.6,72.6,11.9
0.028000,509.6,95.7,1973.1,65.6,2822.3,56.1,513.8,1990.5,2822.9,284.6,72.9,13.6
0.030000,514.9,86.6,1974.6,47.9,2820.6,53.9,514.5,1988.3,2822.3,284.6,73,15.8
0.032000,518.3,81.7,1975.1,36.1,2819.0,54.3,515.5,1985.3,2821.4,284.5,73.1,18.1
0.034000,520.6,78.9,1976.4,29.1,2818.0,57.0,516.8,1982.1,2820.4,284.5,73.3,20.3
0.036000,522.5,77.3,1978.9,25.5,2818.4,60.9,518.3,1978.7,2819.4,284.5,73.4,22
0.038000,524.4,75.5,1982.8,23.8,2819.1,66.7,519.9,1975.5,2818.4,284.4,73.5,23.5
0.040000,525.9,73.3,1987.0,23.4,2818.9,75.5,521.8,1972.8,2817.5,284.4,73.6,24.8
0.042000,526.8,70.5,1990.3,23.9,2818.5,86.5,523.7,1970.9,2816.8,284.4,73.7,26
0.044000,527.3,67.4,1991.7,24.9,2819.8,95.0,525.7,1970.1,2816.4,284.4,73.8,26.9
0.046000,527.7,63.9,1991.7,25.9,2821.9,100.0,527.7,1970.3,2816.3,284.3,74,27.4
0.048000,528.5,60.1,1991.5,26.8,2822.2,105.2,529.8,1971.8,2816.6,284.3,74.1,27.5
0.050000,530.0,57.0,1991.8,27.3,2820.3,111.8,531.8,1974.5,2817.3,284.3,74.2,27.3
0.052000,532.0,55.0,1992.0,27.6,2817.4,118.3,533.7,1978.2,2818.5,284.2,74.3,27
0.054000,534.3,53.7,1991.6,28.4,2815.8,122.2,535.6,1982.7,2820,284.2,74.3,26.9
0.056000,536.2,52.4,1990.9,30.0,2816.6,123.7,537.3,1987.7,2821.9,284.2,74.4,27.2
0.058000,537.6,50.6,1989.9,32.7,2819.4,124.6,538.9,1992.8,2824.1,284.1,74.4,28
0.060000,539.0,48.9,1988.5,35.2,2822.9,124.2,540.4,1997.6,2826.6,284.1,74.4,28.8
0.062000,540.6,47.3,1986.3,36.8,2826.6,123.3,541.7,2001.5,2829.3,284.1,74.4,29.7
0.064000,542.3,45.9,1983.3,37.3,2830.2,125.2,542.9,2004.1,2832.1,284,74.5,30.3
0.066000,543.8,44.1,1979.8,37.9,2834.8,134.1,543.9,2004.9,2834.9,284,74.5,30.4
0.068000,544.7,41.8,1977.0,40.1,2840.3,150.1,544.8,2003.6,2837.8,283.9,74.6,30.1
0.070000,545.3,39.5,1975.5,44.2,2843.7,161.3,545.6,1999.7,2840.6,283.9,74.7,29.5
0.072000,546.1,37.1,1974.1,50.0,2843.5,154.2,546.2,1993,2843.3,283.9,74.8,28.8
0.074000,547.1,35.1,1971.2,56.1,2843.0,134.9,546.8,1983.5,2845.9,283.8,74.9,28.3
0.076000,548.3,33.1,1965.0,63.0,2845.0,115.7,547.2,1971.1,2848.4,283.8,75,28
0.078000,549.4,31.3,1955.9,70.5,2849.7,103.8,547.7,1955.9,2850.8,283.7,75.1,27.9
0.080000,550.2,29.6,1946.3,78.6,2856.2,101.0,548.1,1938.3,2853.3,283.7,75.2,27.9
0.082000,550.4,27.6,1936.9,90.6,2865.0,111.3,548.4,1918.7,2855.8,283.7,75.3,27.9
0.084000,549.8,24.8,1926.4,112.1,2875.6,145.1,548.8,1897.4,2858.5,283.6,75.4,27.9
0.086000,548.9,21.0,1908.1,149.5,2884.4,225.3,549.1,1875.1,2861.5,283.6,75.5,27.9
0.088000,548.5,17.9,1880.3,188.2,2875.4,337.0,549.5,1852.3,2864.8,283.6,75.6,27.9
0.090000,548.8,16.2,1850.0,215.0,2853.3,405.3,549.9,1829.7,2868.7,283.5,75.6,27.9
0.092000,549.4,15.6,1823.0,230.5,2845.6,405.9,550.3,1807.8,2873.2,283.5,75.7,27.9
0.094000,549.9,15.3,1797.1,237.5,2848.7,379.6,550.7,1787.3,2878.3,283.5,75.8,27.9
0.096000,550.4,14.9,1768.8,237.2,2858.2,349.6,551.1,1768.5,2884.2,283.5,75.8,28
0.098000,550.9,14.6,1742.9,228.0,2877.7,329.2,551.6,1751.8,2891,283.4,75.8,28.1
0.100000,551.6,14.6,1723.5,207.4,2911.3,311.4,552,1737.5,2898.6,283.4,75.9,28.2
0.102000,552.3,14.8,1712.1,182.6,2940.7,286.5,552.5,1725.7,2907,283.4,75.9,28.3
0.104000,552.9,14.8,1702.3,164.7,2947.6,257.0,553,1716.2,2916.3,283.4,75.9,28.4
0.106000,553.5,14.9,1694.4,157.0,2939.2,215.9,553.4,1709,2926.3,283.4,75.9,28.6
0.108000,554.1,15.4,1689.6,150.1,2935.6,174.7,553.8,1703.6,2936.9,283.3,75.9,28.7
0.110000,554.6,15.8,1684.5,137.0,2939.9,151.3,554.2,1699.7,2948,283.3,75.9,28.9
0.112000,554.9,15.7,1678.5,121.9,2948.1,152.5,554.5,1696.8,2959.4,283.3,75.9,29
0.114000,555.0,15.5,1674.8,109.3,2959.2,169.5,554.8,1694.1,2971.1,283.3,75.8,29.1
0.116000,555.2,15.6,1675.4,103.3,2973.7,183.0,555,1691.3,2982.7,283.3,75.8,29.2
0.118000,555.4,16.1,1679.1,105.1,2990.5,177.9,555.1,1687.6,2994.2,283.2,75.7,29
0.120000,555.4,16.7,1683.7,115.9,3007.3,163.1,555.2,1682.4,3005.3,283.2,75.6,28.8
0.122000,555.2,17.1,1686.7,136.1,3021.4,153.9,555.3,1675.5,3015.9,283.2,75.6,28.7
0.124000,555.0,17.7,1686.6,165.8,3033.6,150.9,555.2,1666.3,3025.9,283.1,75.5,28.9
0.126000,554.9,18.5,1683.2,198.6,3042.3,149.9,555.1,1654.7,3035.1,283.1,75.5,29.4
0.128000,554.9,19.3,1674.6,234.0,3048.3,150.9,555,1640.5,3043.5,283.1,75.4,30.5
0.130000,554.9,19.7,1656.5,272.3,3053.0,161.6,554.8,1624,3051,283,75.4,31.9
0.132000,554.6,19.5,1627.2,310.4,3057.4,187.6,554.5,1605.3,3057.5,283,75.3,33.2
0.134000,554.3,19.0,1591.0,343.0,3060.2,222.8,554.3,1584.9,3063.2,282.9,75.3,34.3
0.136000,554.3,18.8,1559.7,366.9,3061.5,239.4,554,1563.3,3067.9,282.9,75.2,34.7
0.138000,554.2,18.8,1528.7,379.8,3064.0,224.8,553.7,1541,3071.7,282.8,75.2,34.6
0.140000,553.8,18.8,1494.2,361.6,3067.9,192.4,553.5,1519,3074.9,282.8,75.2,34.3
0.142000,552.9,18.6,1466.0,315.1,3072.4,160.6,553.2,1497.8,3077.3,282.7,75.1,33.8
0.144000,552.1,18.9,1450.0,265.2,3076.9,135.0,552.9,1478.3,3079.1,282.7,75.1,33.4
0.146000,551.7,19.6,1444.5,232.5,3080.8,117.8,552.7,1461.1,3080.5,282.6,75,33.4
0.148000,552.0,20.7,1444.5,213.9,3084.3,107.2,552.6,1447.1,3081.4,282.6,75,33.6
0.150000,552.5,21.8,1446.6,204.3,3087.0,104.1,552.4,1436.6,3082,282.5,75,33.9
0.152000,553.1,22.6,1448.1,195.9,3087.9,108.0,552.4,1430.2,3082.4,282.5,74.9,34.1
0.154000,553.1,22.7,1443.7,186.1,3085.7,121.1,552.3,1428,3082.5,282.4,74.9,34.3
