time,f1,b1,f2,b2,f3,b3,f1p,f2p,f3p,f0,intensity,harmonicity
0.026000,474.0,66.9,692.7,94.8,3123.4,156.3,513.2,690.4,3104.4,270.9,74.8,8.2
0.028000,491.2,51.3,694.4,96.0,3111.7,153.3,513.2,690.3,3105.2,270.8,76,9.2
0.030000,502.8,39.4,696.6,99.0,3103.6,162.5,513.1,690.2,3106.7,270.7,76.9,10.1
0.032000,509.3,31.9,698.6,103.5,3102.9,176.3,512.9,690,3108.8,270.6,77.6,11.1
0.034000,512.5,27.7,698.7,109.6,3109.8,179.9,512.7,689.8,3111.4,270.5,78.2,12.4
0.036000,513.6,26.4,695.3,115.5,3113.7,175.7,512.5,689.5,3114.5,270.3,78.6,14
0.038000,514.1,26.8,688.9,120.1,3107.7,180.5,512.3,689,3118.1,270.2,78.8,16.1
0.040000,514.6,28.1,683.0,124.0,3095.8,198.0,511.9,688.5,3122.2,270.1,79,18.4
0.042000,515.2,29.8,679.3,130.2,3091.0,220.7,511.6,687.8,3126.6,270,79.1,20.7
0.044000,515.6,31.2,677.9,137.3,3106.1,227.8,511.1,687,3131.4,269.9,79.1,22.6
0.046000,515.4,32.3,677.3,141.6,3128.5,213.1,510.7,686.1,3136.5,269.8,79.1,24
0.048000,514.7,33.5,677.2,143.3,3141.0,203.0,510.1,684.9,3141.9,269.7,79,24.8
0.050000,514.2,35.3,678.6,145.8,3141.7,223.2,509.5,683.6,3147.5,269.6,78.9,25.3
0.052000,514.3,38.4,681.4,153.6,3139.8,277.9,508.9,682.1,3153.2,269.5,78.7,25.7
0.054000,515.1,42.5,683.8,167.2,3149.6,343.4,508.1,680.4,3158.9,269.4,78.5,26.1
0.056000,515.9,46.8,684.4,182.7,3178.5,372.0,507.3,678.6,3164.6,269.3,78.4,26.7
0.058000,516.2,51.1,682.6,197.0,3210.6,339.7,506.4,676.5,3170.3,269.3,78.2,27.4
0.060000,515.7,54.9,679.1,206.8,3222.0,283.1,505.5,674.3,3175.9,269.2,78.1,28.1
0.062000,514.5,59.1,674.5,212.6,3221.3,234.1,504.4,672,3181.2,269.1,78,28.8
0.064000,513.1,63.9,669.3,216.6,3218.5,201.7,503.3,669.6,3186.3,269.1,77.8,29.3
0.066000,512.3,70.5,662.9,223.0,3215.8,183.0,502,667.1,3191,269,77.7,29.6
0.068000,512.6,78.7,655.9,232.7,3213.0,176.2,500.7,664.6,3195.4,269,77.6,29.6
0.070000,512.9,86.5,650.9,238.0,3211.3,177.4,499.3,662.1,3199.3,269,77.5,29.5
0.072000,510.9,92.6,650.0,231.5,3211.0,185.9,497.7,659.6,3202.7,268.9,77.3,29.3
0.074000,506.9,95.8,652.2,217.7,3210.4,199.1,496.1,657.3,3205.6,268.9,77.2,29.1
0.076000,502.3,97.1,654.5,204.8,3207.8,209.1,494.3,655.2,3207.9,268.9,77.1,28.8
0.078000,498.1,97.9,654.9,195.0,3204.2,205.0,492.5,653.3,3209.5,268.9,77,28.4
0.080000,493.3,98.6,654.1,184.1,3202.1,190.6,490.5,651.6,3210.5,268.9,76.8,27.8
0.082000,487.6,99.2,653.1,169.8,3201.9,182.1,488.4,650.4,3210.8,268.9,76.7,27.4
0.084000,481.4,99.6,652.6,154.1,3200.4,188.8,486.3,649.5,3210.3,268.9,76.5,27.1
0.086000,474.8,99.4,652.5,139.3,3192.3,205.7,484,649,3209.2,268.9,76.4,27.1
0.088000,469.0,98.5,652.6,128.1,3178.5,220.9,481.6,649,3207.2,268.9,76.2,27.5
0.090000,464.2,96.8,652.8,120.0,3165.8,239.1,479,649.6,3204.6,268.9,76.1,28
0.092000,460.8,95.8,653.2,116.4,3162.3,273.5,476.4,650.7,3201.2,268.9,76,28.6
0.094000,458.8,96.8,654.0,117.3,3171.0,325.5,473.7,652.3,3197,269,75.8,29
0.096000,457.1,98.6,655.7,119.1,3188.1,372.7,470.9,654.5,3192.1,269,75.7,29.1
0.098000,454.2,97.7,658.6,115.7,3194.2,377.2,467.9,657.2,3186.6,269,75.6,28.8
0.100000,450.2,93.1,662.7,106.6,3180.3,349.1,464.9,660.5,3180.4,269.1,75.5,28.3
0.102000,447.1,88.2,667.1,98.7,3162.1,310.2,461.8,664.3,3173.5,269.1,75.4,27.9
0.104000,445.5,84.7,671.9,94.5,3148.4,273.9,458.6,668.6,3166.1,269.2,75.3,27.7
0.106000,444.9,83.1,676.7,93.9,3139.7,250.7,455.4,673.3,3158.1,269.2,75.2,28
0.108000,444.5,82.7,681.0,94.7,3134.6,246.9,452.1,678.3,3149.7,269.3,75.1,28.8
0.110000,443.7,83.6,685.3,96.2,3132.6,262.7,448.7,683.6,3140.8,269.4,75.1,29.9
0.112000,442.7,85.3,689.4,97.8,3133.1,283.5,445.3,689,3131.5,269.4,75,31
0.114000,441.2,86.4,694.2,98.0,3134.1,291.7,441.8,694.5,3122,269.5,74.9,31.9
0.116000,439.7,86.9,699.1,97.4,3137.6,285.8,438.3,700,3112.1,269.5,74.9,32.4
0.118000,438.3,87.9,704.1,97.3,3142.2,277.0,434.8,705.4,3102.1,269.6,74.8,32.6
0.120000,437.1,89.2,709.1,97.7,3140.0,271.6,431.3,710.5,3092,269.6,74.7,32.6
0.122000,435.6,89.6,713.6,96.7,3124.7,270.4,427.8,715.2,3081.8,269.7,74.6,32.5
0.124000,433.3,88.3,717.6,93.6,3098.1,271.7,424.3,719.4,3071.6,269.7,74.5,32.5
0.126000,430.7,86.0,720.8,89.1,3071.2,276.4,420.9,723,3061.4,269.7,74.5,32.5
0.128000,427.7,83.3,723.4,84.0,3050.7,287.9,417.5,726,3051.4,269.8,74.4,32.5
0.130000,424.8,80.8,725.5,79.4,3042.3,302.1,414.1,728.1,3041.6,269.8,74.3,32.5
0.132000,422.0,78.3,727.0,75.4,3041.2,309.7,410.8,729.3,3032,269.8,74.3,32.6
0.134000,419.1,75.2,728.2,71.2,3035.3,306.0,407.5,729.6,3022.7,269.8,74.2,32.5
0.136000,416.2,72.2,728.4,67.6,3020.7,288.3,404.4,728.9,3013.7,269.8,74.2,32.5
0.138000,412.9,69.5,727.3,64.4,3000.6,253.1,401.3,727.1,3005.1,269.8,74.1,32.3
0.140000,409.3,67.0,724.5,61.6,2983.5,209.0,398.4,724.2,2996.8,269.7,74.1,32.1
0.142000,405.1,65.0,719.8,59.0,2971.9,168.4,395.6,720.3,2989,269.7,74,32
0.144000,400.9,64.3,714.1,57.8,2964.9,143.5,392.9,715.3,2981.6,269.6,73.9,31.8
0.146000,397.2,65.4,708.5,58.6,2958.7,134.0,390.3,709.3,2974.7,269.6,73.9,31.8
0.148000,394.2,68.3,702.7,61.3,2950.7,131.7,387.9,702.3,2968.3,269.5,73.8,31.9
0.150000,391.8,71.7,696.3,64.9,2943.3,125.7,385.6,694.5,2962.3,269.4,73.7,32.1
0.152000,389.4,75.2,687.8,68.2,2938.1,112.8,383.5,685.9,2956.8,269.4,73.7,32.2
0.154000,386.6,78.8,677.3,70.9,2935.3,101.3,381.5,676.7,2951.7,269.3,73.6,32.2
0.156000,383.1,83.2,665.5,73.1,2932.8,96.3,379.8,667.1,2947.1,269.2,73.5,32.1
0.158000,378.5,89.0,652.9,74.9,2929.9,95.1,378.2,657.2,2942.9,269.1,73.5,31.7
0.160000,373.0,95.2,641.7,76.0,2928.4,91.9,376.8,647.3,2939.1,269,73.4,31.2
0.162000,366.8,101.3,632.3,76.8,2929.7,82.7,375.5,637.4,2935.7,268.8,73.4,30.7
0.164000,361.4,107.2,625.0,78.1,2933.2,71.2,374.5,627.9,2932.5,268.7,73.3,30.4
0.166000,356.9,114.2,618.0,80.6,2937.1,61.3,373.6,619,2929.7,268.6,73.2,30.3
0.168000,353.5,121.8,611.2,83.6,2939.6,55.1,372.9,610.8,2927.1,268.4,73.1,30.3
0.170000,351.3,128.7,605.2,86.6,2939.7,52.4,372.4,603.7,2924.8,268.3,73.1,30.4
0.172000,350.0,135.7,600.4,91.0,2937.2,52.8,372.1,597.8,2922.6,268.2,73,30.6
0.174000,350.0,144.7,597.1,98.8,2933.0,56.6,372,593.4,2920.5,268,72.9,30.8
0.176000,351.9,161.9,594.0,114.3,2928.4,64.9,372,590.7,2918.5,267.9,72.8,31
0.178000,356.3,188.4,589.6,137.5,2926.0,75.5,372.2,589.9,2916.6,267.7,72.8,31.3
0.180000,362.4,211.9,585.6,162.4,2924.7,82.8,372.6,591.2,2914.6,267.5,72.7,31.6
0.182000,369.2,225.0,584.0,185.4,2922.8,85.1,373.1,594.6,2912.6,267.4,72.6,31.8
0.184000,375.9,227.6,585.8,207.3,2919.5,84.5,373.7,600.4,2910.6,267.2,72.6,32
0.186000,382.1,216.3,595.0,229.6,2914.0,83.8,374.5,608.7,2908.4,267.1,72.5,32.1
0.188000,385.6,192.8,614.6,246.5,2907.8,85.2,375.4,619.5,2906.1,266.9,72.5,32
0.190000,386.6,164.7,643.1,253.1,2902.1,89.6,376.4,632.9,2903.7,266.7,72.4,31.8
0.192000,385.7,139.4,673.6,247.0,2897.4,95.8,377.6,648.9,2901.1,266.6,72.4,31.6
0.194000,384.5,120.5,701.3,237.0,2893.5,102.3,378.8,667.4,2898.3,266.4,72.3,31.5
0.196000,384.0,107.4,729.7,233.2,2890.2,110.9,380.1,688.4,2895.4,266.2,72.3,31.5
0.198000,384.6,99.9,758.8,237.9,2888.3,123.2,381.5,711.7,2892.2,266.1,72.2,31.6
0.200000,385.9,95.4,788.9,245.9,2887.7,140.3,382.9,737.3,2888.9,265.9,72.2,31.9
0.202000,386.9,92.5,813.5,250.6,2886.0,160.9,384.4,765,2885.3,265.7,72.2,32
0.204000,387.8,90.9,830.8,254.0,2880.1,189.2,385.9,794.5,2881.7,265.5,72.1,32.1
0.206000,388.4,92.8,836.8,265.2,2869.7,228.2,387.5,825.6,2877.8,265.4,72.1,31.9
0.208000,389.5,100.3,831.0,294.7,2858.5,275.7,389,858,2873.9,265.2,72.1,31.3
0.210000,393.4,116.8,814.7,362.8,2848.8,325.5,390.6,891.5,2869.8,265,72.1,30.6
0.212000,403.6,139.3,794.7,495.0,2840.5,365.9,392.1,925.7,2865.7,264.8,72,30
0.214000,418.9,151.8,787.9,721.8,2832.7,414.7,393.6,960.3,2861.6,264.7,72,29.5
0.216000,424.5,144.6,839.5,938.0,2829.9,481.7,395.1,994.9,2857.5,264.5,72,29.5
0.218000,420.7,131.7,962.9,1010.3,2839.3,568.1,396.5,1029.2,2853.4,264.3,71.9,29.9
0.220000,416.1,121.5,1089.6,950.9,2865.4,668.7,397.9,1062.8,2849.4,264.1,71.9,30.5
0.222000,413.9,117.3,1181.1,878.8,2905.1,763.4,399.2,1095.3,2845.6,263.9,71.8,31.1
0.224000,412.9,116.8,1246.2,816.6,2928.4,800.1,400.4,1126.4,2841.9,263.7,71.7,31.5
0.226000,410.7,115.2,1270.9,736.8,2897.4,759.8,401.5,1155.8,2838.4,263.6,71.6,31.5
0.228000,406.6,109.4,1269.0,617.7,2848.4,672.3,402.5,1183,2835.2,263.4,71.5,31.1
0.230000,401.9,100.5,1264.8,484.2,2824.8,584.3,403.5,1207.9,2832.3,263.2,71.4,30.5
0.232000,397.9,90.5,1265.2,371.6,2821.7,528.8,404.3,1230,2829.6,263,71.3,29.8
0.234000,394.6,80.5,1268.5,287.6,2818.3,503.2,405,1249.2,2827.4,262.9,71.2,29.2
0.236000,391.9,73.1,1271.5,241.2,2809.1,486.8,405.5,1265.3,2825.5,262.7,71.1,28.8
0.238000,389.0,68.8,1270.2,225.5,2801.4,459.4,406,1277.9,2824,262.5,71,28.6
0.240000,385.8,68.4,1261.2,241.3,2800.6,424.2,406.3,1287.1,2822.9,262.4,70.8,28.5
0.242000,382.1,72.6,1241.3,298.7,2805.3,390.6,406.5,1292.6,2822.2,262.2,70.7,28.3
0.244000,379.0,82.0,1210.4,410.5,2812.1,367.8,406.6,1294.5,2822,262.1,70.5,28
