time,f1,b1,f2,b2,f3,b3,f1p,f2p,f3p,f0,intensity,harmonicity
0.026000,508.8,19.3,1504.0,187.2,2773.4,135.1,510.9,1537,2765.1,260.9,74,26.3
0.028000,509.8,19.0,1535.1,163.9,2781.3,111.9,511.3,1543.7,2770.4,261.3,74.1,26.4
0.030000,511.1,19.3,1560.6,151.1,2790.1,94.1,511.9,1554.4,2778.7,261.7,74.3,26.4
0.032000,512.6,19.8,1580.7,144.9,2796.2,85.2,512.7,1568.7,2789.6,262.2,74.4,26.3
0.034000,514.4,20.2,1596.8,138.5,2799.3,85.7,513.7,1585.8,2802.1,262.6,74.5,26.1
0.036000,516.3,20.7,1612.7,131.9,2802.6,95.9,514.9,1604.8,2815.5,263.1,74.6,25.8
0.038000,518.0,21.7,1632.1,129.0,2811.8,112.7,516.3,1624.9,2828.9,263.6,74.6,25.2
0.040000,519.6,23.1,1654.8,129.9,2830.3,121.7,517.8,1645.2,2841.3,264.1,74.7,24.6
0.042000,521.0,24.3,1675.9,130.5,2849.0,112.3,519.4,1664.9,2852,264.7,74.8,24
0.044000,522.4,24.8,1689.6,129.3,2859.2,98.8,521,1683.2,2860.5,265.2,74.8,23.7
0.046000,523.7,25.0,1697.5,128.8,2861.6,91.4,522.8,1699.6,2866.2,265.8,74.9,23.9
0.048000,524.6,25.5,1705.1,132.5,2859.7,88.1,524.5,1713.8,2869.1,266.4,75,24.7
0.050000,525.3,26.2,1714.5,140.8,2857.6,84.7,526.3,1725.5,2869.3,267,75.1,25.8
0.052000,526.1,26.8,1723.7,149.3,2859.2,79.9,528.1,1734.8,2866.9,267.5,75.2,26.9
0.054000,527.4,27.2,1731.1,155.0,2865.1,75.1,529.8,1741.7,2862.5,268.1,75.2,27.6
0.056000,529.4,27.2,1738.1,159.5,2871.9,74.2,531.5,1746.6,2856.5,268.7,75.3,27.6
0.058000,531.8,26.6,1746.4,166.8,2875.3,79.5,533.2,1749.8,2849.8,269.3,75.4,26.9
0.060000,534.4,25.6,1756.2,176.5,2872.5,89.4,534.8,1751.7,2842.8,269.9,75.5,25.7
0.062000,536.7,24.5,1765.8,183.5,2863.4,98.9,536.4,1752.7,2836.2,270.5,75.5,24.6
0.064000,538.7,23.2,1769.7,180.4,2849.2,106.2,537.9,1753.2,2830.5,271.1,75.6,23.8
0.066000,540.4,21.8,1764.5,164.2,2829.2,110.8,539.3,1753.4,2826,271.7,75.6,23.8
0.068000,542.0,20.3,1753.3,139.0,2801.7,109.2,540.7,1753.6,2823,272.3,75.7,24.4
0.070000,543.5,19.0,1743.4,117.7,2778.9,100.9,542,1753.9,2821.5,272.8,75.7,25.4
0.072000,544.7,18.1,1739.6,109.5,2775.2,95.0,543.2,1754.1,2821.4,273.4,75.7,26.5
0.074000,545.4,18.4,1743.1,116.6,2791.4,94.9,544.3,1754.3,2822.5,273.9,75.7,27.5
0.076000,545.8,19.4,1751.6,133.4,2816.9,96.7,545.4,1754.3,2824.5,274.5,75.7,28.1
0.078000,546.2,20.7,1760.2,150.5,2838.6,97.3,546.4,1753.8,2827.1,275,75.7,28.7
0.080000,546.8,22.0,1765.0,160.6,2850.6,97.6,547.4,1752.6,2830,275.5,75.7,29.2
0.082000,547.3,23.2,1764.3,160.8,2854.5,99.4,548.3,1750.7,2833,276,75.8,29.5
0.084000,547.6,24.4,1757.2,151.4,2855.5,103.6,549.2,1747.9,2836,276.5,75.8,29.6
0.086000,548.0,25.3,1746.7,136.5,2856.6,106.5,550,1744.2,2839,277,75.8,29.4
0.088000,549.2,25.4,1735.3,118.4,2856.6,103.4,550.9,1739.7,2842.2,277.4,75.7,28.7
0.090000,551.2,24.2,1725.7,101.1,2852.3,94.0,551.7,1734.5,2845.7,277.9,75.8,27.8
0.092000,553.3,22.2,1718.9,87.4,2844.7,81.8,552.6,1728.9,2849.9,278.3,75.8,26.9
0.094000,554.9,20.5,1714.4,77.3,2839.5,71.1,553.5,1723.1,2855.3,278.7,75.8,26.4
0.096000,555.9,19.1,1710.1,69.0,2842.0,66.0,554.4,1717.6,2862.1,279.1,75.8,26.6
0.098000,556.6,17.9,1705.8,62.3,2854.7,68.8,555.4,1712.6,2870.9,279.5,75.8,27.5
0.100000,557.1,17.2,1704.2,58.7,2878.1,78.1,556.4,1708.5,2881.8,279.8,75.8,28.7
0.102000,557.5,17.1,1706.9,58.5,2906.0,89.3,557.5,1705.4,2894.9,280.2,75.8,30
0.104000,558.2,17.3,1711.9,60.8,2926.9,99.3,558.6,1703.6,2910.1,280.5,75.8,30.9
0.106000,559.1,17.2,1717.0,64.3,2938.0,110.2,559.7,1703.1,2927.2,280.9,75.8,31.2
0.108000,560.3,16.9,1718.9,66.9,2941.1,121.7,560.7,1703.8,2945.7,281.2,75.8,30.8
0.110000,561.5,16.3,1716.1,66.5,2946.4,130.0,561.8,1705.5,2965,281.5,75.7,30.2
0.112000,562.6,15.9,1710.4,62.7,2967.3,127.8,562.8,1708.1,2984.3,281.7,75.6,29.4
0.114000,563.7,16.0,1705.7,58.0,3001.4,111.2,563.6,1711.1,3002.6,282,75.5,28.9
0.116000,564.5,16.7,1704.8,56.7,3027.9,90.8,564.4,1714.3,3019.2,282.3,75.4,28.8
0.118000,565.2,18.0,1708.4,62.5,3036.9,81.4,565,1717.2,3033.1,282.5,75.3,29
0.120000,565.6,19.3,1714.6,74.3,3039.3,82.9,565.5,1719.5,3043.7,282.7,75.2,29.4
0.122000,565.7,20.8,1720.9,86.4,3048.8,84.8,565.8,1721,3050.3,282.9,75.1,29.9
0.124000,565.8,21.8,1724.6,96.0,3068.5,80.8,565.9,1721.5,3052.5,283.1,75.1,30.4
