time,f1,b1,f2,b2,f3,b3,f1p,f2p,f3p,f0,intensity,harmonicity
0.025000,424.8,40.2,2503.7,202.1,2841.9,341.2,447.2,2582.3,2893.7,240.3,75.2,3.9
0.027000,435.5,40.6,2509.9,217.0,2864.4,359.0,446.2,2582.5,2896,240.1,75.4,4.5
0.029000,444.3,40.7,2522.4,241.2,2874.8,384.1,444.7,2582.8,2899.7,239.9,75.6,5.9
0.031000,449.8,39.0,2547.7,251.3,2875.0,428.5,442.6,2583.3,2904.9,239.7,75.8,7.5
0.033000,450.2,36.5,2575.8,228.8,2879.7,490.8,440,2583.9,2911.5,239.5,75.9,9.3
0.035000,445.3,34.8,2594.6,192.8,2901.7,549.2,436.8,2584.7,2919.3,239.2,76,10.7
0.037000,436.9,35.2,2606.4,167.7,2933.4,597.3,433.2,2585.7,2928.3,239,76,11.9
0.039000,428.1,37.5,2617.3,155.0,2963.7,656.6,429.2,2586.9,2938.3,238.7,76,13
0.041000,421.1,41.1,2628.6,146.8,2991.1,744.1,424.9,2588.3,2949.3,238.4,76,14
0.043000,416.6,45.1,2637.4,138.3,3012.9,841.3,420.3,2590.1,2960.9,238.1,75.9,14.9
0.045000,412.9,49.0,2642.0,130.2,3023.2,919.0,415.5,2592.1,2973.1,237.8,75.8,15.7
0.047000,408.4,52.3,2641.7,125.1,3019.1,946.2,410.6,2594.5,2985.8,237.5,75.7,16.1
0.049000,402.4,55.2,2637.8,123.8,3013.4,912.2,405.7,2597.1,2998.7,237.2,75.5,16.4
0.051000,395.6,58.1,2634.4,125.2,3017.8,837.6,400.8,2600.1,3011.6,236.9,75.3,16.5
0.053000,389.9,61.5,2634.2,130.0,3026.8,767.7,396,2603.4,3024.4,236.6,75.2,16.6
0.055000,386.0,66.1,2634.3,140.8,3032.9,711.4,391.5,2607.1,3037,236.3,75.1,16.9
0.057000,383.8,71.8,2629.3,157.1,3040.2,644.4,387.3,2611,3049.1,236,75,17.1
0.059000,383.3,78.0,2618.6,168.1,3055.8,557.6,383.5,2615.2,3060.6,235.6,74.9,17.5
0.061000,384.4,83.5,2610.3,164.9,3073.6,479.6,380.1,2619.7,3071.4,235.3,74.8,17.8
0.063000,386.0,87.4,2609.5,156.7,3084.7,437.7,377.3,2624.3,3081.3,235,74.7,18.2
0.065000,387.0,90.5,2613.6,152.8,3090.9,425.4,375.1,2629.1,3090.2,234.7,74.7,18.5
0.067000,387.1,94.5,2620.6,156.3,3095.5,430.7,373.6,2633.9,3098,234.4,74.7,19
0.069000,386.8,100.3,2629.2,166.5,3100.2,440.9,372.8,2638.7,3104.7,234.1,74.8,19.6
0.071000,386.3,105.3,2635.4,177.4,3104.7,447.3,372.8,2643.3,3110.1,233.8,74.8,20.1
0.073000,385.6,107.7,2635.5,181.9,3109.3,448.2,373.6,2647.8,3114.2,233.5,74.9,20.5
0.075000,384.9,108.9,2630.8,178.8,3114.3,442.7,375.3,2652,3117,233.3,75,20.5
0.077000,384.5,112.8,2627.0,175.6,3120.2,432.3,377.8,2655.7,3118.4,233,75,19.9
0.079000,385.5,122.4,2628.5,179.7,3126.4,426.6,381.3,2658.9,3118.6,232.8,75,18.7
0.081000,388.7,137.4,2636.2,192.7,3131.8,436.2,385.6,2661.4,3117.4,232.5,74.9,17.5
0.083000,394.1,155.4,2648.1,209.3,3136.7,461.6,390.8,2663.2,3115,232.3,74.8,16.4
0.085000,399.8,171.7,2658.6,219.5,3140.0,495.8,396.9,2664.1,3111.4,232.1,74.8,16
0.087000,404.3,183.7,2663.5,219.7,3138.0,531.3,403.7,2664,3106.8,231.9,74.8,16.3
0.089000,407.9,194.4,2665.2,217.5,3129.0,562.8,411.4,2662.8,3101,231.7,74.7,17.3
0.091000,412.2,204.7,2666.8,222.2,3110.3,586.6,419.9,2660.4,3094.4,231.5,74.7,18.4
0.093000,417.9,212.1,2667.1,235.6,3075.5,602.9,429,2656.8,3087,231.3,74.7,19.4
0.095000,425.3,214.3,2663.3,253.2,3029.0,597.4,438.7,2651.8,3078.8,231.2,74.7,19.9
0.097000,435.0,212.7,2653.6,268.2,2992.4,562.4,449,2645.4,3070.1,231,74.6,19.7
0.099000,445.8,210.9,2640.5,275.1,2983.1,519.9,459.7,2637.5,3061,230.9,74.6,19.1
0.101000,456.5,209.5,2626.0,277.4,2990.1,485.8,470.8,2628.2,3051.5,230.8,74.5,18.3
0.103000,466.2,208.3,2611.6,278.5,2999.7,467.5,482.1,2617.4,3041.9,230.6,74.5,17.5
0.105000,475.8,208.4,2597.3,276.8,3007.8,460.4,493.7,2605.1,3032.1,230.5,74.5,17.1
0.107000,487.7,208.7,2581.1,270.8,3013.1,446.4,505.3,2591.3,3022.5,230.4,74.5,17.1
0.109000,501.8,207.4,2564.9,258.6,3017.9,418.7,516.9,2576.2,3013,230.3,74.5,17.3
0.111000,517.8,204.8,2552.4,241.6,3024.7,388.5,528.3,2559.7,3003.8,230.2,74.5,17.7
0.113000,534.6,201.7,2545.3,228.8,3030.5,366.4,539.6,2541.9,2994.9,230.1,74.5,18
0.115000,551.7,197.7,2541.6,228.6,3031.1,355.0,550.4,2522.9,2986.5,229.9,74.5,18.2
0.117000,568.8,192.0,2538.1,245.4,3024.6,353.1,560.9,2502.8,2978.6,229.8,74.6,18.3
0.119000,583.4,185.0,2529.9,276.3,3011.8,355.7,570.8,2481.8,2971.3,229.7,74.6,18.3
0.121000,594.9,176.4,2510.8,315.6,2993.8,354.7,580.1,2460,2964.6,229.6,74.6,18.3
0.123000,603.3,166.5,2476.6,354.1,2972.8,344.0,588.7,2437.5,2958.6,229.5,74.7,18.2
0.125000,609.6,156.1,2427.3,379.8,2952.1,323.1,596.5,2414.4,2953.3,229.4,74.7,18.1
0.127000,615.1,145.6,2369.4,377.5,2934.9,298.2,603.5,2391,2948.7,229.2,74.7,17.8
0.129000,620.1,137.2,2323.7,347.7,2925.0,282.1,609.5,2367.3,2944.7,229.1,74.8,17.5
0.131000,624.9,131.6,2295.7,309.5,2923.2,274.4,614.6,2343.6,2941.5,229,74.8,17.1
0.133000,628.8,128.5,2278.6,275.9,2931.3,262.3,618.7,2320,2938.8,228.8,74.8,16.8
0.135000,631.3,127.5,2263.5,248.4,2945.9,237.8,621.7,2296.6,2936.8,228.7,74.8,16.6
0.137000,632.0,128.2,2249.1,226.7,2956.3,212.8,623.7,2273.6,2935.3,228.5,74.8,16.7
0.139000,631.2,130.5,2236.6,207.7,2958.0,197.7,624.6,2251.1,2934.3,228.4,74.8,16.9
0.141000,629.3,135.1,2227.5,192.3,2953.3,192.8,624.5,2229.2,2933.7,228.2,74.8,17.1
0.143000,626.6,142.7,2221.5,182.1,2948.1,191.6,623.4,2208,2933.5,228,74.8,17.3
0.145000,623.1,153.1,2216.1,177.3,2945.3,189.4,621.2,2187.7,2933.6,227.9,74.8,17.4
0.147000,618.9,162.7,2207.1,178.2,2943.4,186.9,618,2168.3,2933.9,227.7,74.7,17.2
0.149000,614.7,170.2,2190.1,183.9,2940.1,185.1,613.9,2149.8,2934.3,227.5,74.7,16.9
0.151000,611.3,176.1,2162.7,190.1,2935.2,183.4,608.9,2132.3,2934.8,227.3,74.6,16.5
0.153000,608.6,182.1,2129.2,189.0,2930.3,180.7,603.1,2115.9,2935.2,227.2,74.6,16.1
0.155000,605.1,190.6,2097.6,177.8,2926.3,176.8,596.4,2100.4,2935.6,227,74.6,15.9
0.157000,599.5,202.8,2075.5,163.0,2924.3,172.0,589.2,2086,2935.8,226.8,74.5,15.7
0.159000,590.7,218.3,2059.7,149.9,2924.3,166.2,581.2,2072.6,2935.8,226.6,74.5,15.6
0.161000,577.6,233.2,2045.5,138.4,2925.6,161.1,572.8,2060,2935.6,226.4,74.4,15.6
0.163000,559.4,241.6,2030.5,124.6,2925.6,159.8,563.9,2048.4,2935,226.2,74.4,15.7
0.165000,536.4,241.5,2016.7,105.4,2922.3,162.9,554.7,2037.6,2934,226.1,74.4,15.9
0.167000,514.4,238.8,2009.4,86.4,2917.4,166.3,545.2,2027.5,2932.6,225.9,74.5,16.5
0.169000,497.5,239.1,2007.1,72.9,2913.2,167.7,535.5,2018.1,2930.8,225.7,74.5,17.3
0.171000,487.1,243.0,2005.9,66.0,2909.3,169.9,525.8,2009.2,2928.6,225.5,74.6,18.3
0.173000,481.0,249.3,2002.9,64.8,2903.3,178.5,516,2000.7,2925.9,225.3,74.6,19
0.175000,477.9,255.6,1997.3,69.3,2894.1,196.6,506.3,1992.6,2922.7,225.1,74.7,19.4
0.177000,478.3,261.9,1989.6,80.5,2884.9,220.8,496.7,1984.7,2919.1,224.9,74.7,19.3
0.179000,481.5,271.8,1981.2,98.9,2884.7,235.8,487.4,1977,2915,224.8,74.6,18.9
0.181000,484.1,288.7,1973.8,120.3,2896.5,226.4,478.4,1969.3,2910.5,224.6,74.6,18.3
0.183000,482.2,308.3,1964.7,134.0,2909.2,199.4,469.7,1961.6,2905.6,224.4,74.5,17.6
0.185000,476.5,321.3,1951.1,134.2,2915.0,175.1,461.4,1953.8,2900.3,224.2,74.5,16.9
0.187000,470.6,323.7,1934.4,128.5,2916.1,159.9,453.6,1945.8,2894.7,224,74.4,16.1
0.189000,465.3,315.8,1920.2,122.4,2913.3,154.6,446.2,1937.7,2888.8,223.8,74.3,14.9
0.191000,457.4,303.2,1913.3,117.7,2905.1,158.3,439.4,1929.3,2882.6,223.6,74.2,13.9
0.193000,444.7,291.2,1913.1,115.5,2890.6,167.3,433.1,1920.6,2876.3,223.5,74.1,13.2
0.195000,432.0,284.6,1914.0,118.2,2876.7,175.8,427.3,1911.6,2869.8,223.3,74.1,13.1
0.197000,423.9,285.2,1911.4,126.1,2869.4,184.9,422,1902.4,2863.2,223.1,74,14
0.199000,420.8,293.0,1906.1,135.7,2867.4,199.9,417.3,1893,2856.5,222.9,74,15.7
0.201000,419.6,308.6,1901.6,144.8,2866.5,225.6,413.1,1883.3,2849.9,222.8,73.9,17.6
0.203000,418.7,331.0,1899.2,153.5,2865.7,255.8,409.4,1873.6,2843.3,222.6,73.9,19.4
0.205000,418.1,353.3,1895.9,161.8,2864.9,277.9,406.2,1863.7,2836.9,222.4,73.9,20.6
0.207000,418.3,354.2,1884.3,166.9,2858.7,286.3,403.4,1853.8,2830.6,222.3,73.8,21
0.209000,418.0,328.7,1861.7,164.3,2846.2,283.9,401.1,1844,2824.5,222.1,73.8,21
0.211000,416.3,293.7,1833.1,149.3,2834.2,273.6,399.2,1834.4,2818.7,222,73.8,20.7
0.213000,413.4,263.2,1809.9,126.0,2825.9,268.9,397.6,1825,2813.2,221.8,73.8,20.4
0.215000,410.6,243.8,1796.4,105.1,2817.3,283.0,396.3,1816.1,2808,221.7,73.8,20.2
0.217000,408.0,241.3,1791.9,94.3,2806.6,318.1,395.3,1807.6,2803.2,221.6,73.7,20.3
0.219000,405.2,253.3,1792.3,93.0,2796.7,357.7,394.5,1799.6,2798.8,221.4,73.7,20.4
0.221000,401.3,265.1,1792.7,97.1,2787.5,375.7,393.9,1792.4,2794.9,221.3,73.6,20.6
0.223000,396.3,264.9,1789.7,103.0,2780.4,366.1,393.5,1785.9,2791.4,221.2,73.4,20.7
0.225000,390.0,258.3,1783.5,110.2,2780.9,348.3,393.2,1780.2,2788.4,221.1,73.2,20.8
0.227000,382.6,249.1,1776.1,118.3,2786.7,338.8,392.9,1775.5,2786,221,73.1,20.8
0.229000,374.9,236.2,1768.9,126.6,2788.2,346.0,392.8,1771.7,2784,220.9,72.9,20.7
0.231000,367.5,223.2,1762.0,139.1,2775.7,379.8,392.7,1769,2782.6,220.8,72.7,20.6
0.233000,361.5,218.1,1756.7,160.2,2748.1,436.8,392.7,1767.4,2781.8,220.7,72.6,20.5
0.235000,357.4,224.0,1754.7,191.8,2714.5,498.6,392.7,1766.8,2781.5,220.6,72.5,20.3
