time,f1,b1,f2,b2,f3,b3,f1p,f2p,f3p,f0,intensity,harmonicity
0.025000,489.7,273.6,2429.1,180.7,2998.6,346.6,511.7,2398.8,3001.2,190.4,75.2,6
0.027000,502.8,282.4,2423.2,206.2,2999.1,367.5,513.7,2398.9,2998.1,190.4,74.9,6.8
0.029000,511.1,266.6,2411.6,237.3,2994.7,379.8,516.9,2399.1,2992.9,190.5,74.7,7.9
0.031000,518.4,238.7,2396.6,270.8,2984.8,389.4,521.3,2399.5,2985.9,190.5,74.6,9.2
0.033000,526.5,214.8,2387.0,295.7,2971.2,407.3,526.9,2400,2977.1,190.6,74.5,10.4
0.035000,536.4,201.0,2389.7,305.5,2955.2,438.3,533.7,2400.6,2966.8,190.6,74.5,11.4
0.037000,547.7,196.6,2399.7,296.3,2940.9,469.0,541.4,2401.4,2955.2,190.7,74.4,12
0.039000,558.5,198.3,2402.7,276.6,2935.3,471.0,550,2402.5,2942.6,190.8,74.4,12.5
0.041000,569.4,203.7,2395.4,257.3,2935.3,445.1,559.4,2403.7,2929.1,190.9,74.4,12.9
0.043000,579.9,211.1,2385.1,245.7,2934.3,421.1,569.5,2405.1,2915.2,190.9,74.4,13.2
0.045000,591.0,220.8,2379.0,242.2,2928.3,420.7,580.1,2406.7,2901,191,74.3,13.6
0.047000,601.4,232.6,2381.0,247.5,2916.2,452.6,591.1,2408.4,2886.8,191.1,74.3,13.9
0.049000,611.5,246.8,2390.2,259.2,2898.1,513.7,602.4,2410.1,2872.9,191.2,74.2,14.2
0.051000,621.2,263.8,2404.8,273.1,2874.1,594.9,613.8,2411.8,2859.4,191.3,74.1,14.5
0.053000,629.8,282.0,2418.4,284.1,2848.8,663.0,625.2,2413.3,2846.7,191.4,74,14.7
0.055000,638.4,301.3,2426.9,295.8,2824.0,699.2,636.5,2414.6,2834.9,191.5,73.9,14.7
0.057000,646.0,317.4,2430.6,312.9,2801.6,703.8,647.6,2415.5,2824,191.7,73.9,14.4
0.059000,653.0,329.5,2434.2,337.0,2777.7,691.3,658.4,2415.7,2814.2,191.8,73.9,14
0.061000,660.3,336.7,2440.1,364.9,2753.2,660.7,668.7,2415.3,2805.5,191.9,73.8,13.4
0.063000,668.0,338.2,2442.2,387.6,2740.3,611.5,678.6,2413.9,2798,192,73.8,12.9
0.065000,676.8,335.1,2431.1,395.2,2750.6,547.2,687.9,2411.5,2791.5,192.2,73.9,12.6
0.067000,684.9,327.9,2411.0,385.4,2775.2,491.7,696.6,2407.9,2786.2,192.3,73.9,12.4
0.069000,692.6,318.3,2389.6,369.7,2799.1,447.0,704.7,2402.9,2781.8,192.5,73.9,12.3
0.071000,700.7,311.4,2373.2,352.5,2815.2,414.8,712.1,2396.5,2778.3,192.6,74,12.3
0.073000,710.8,309.4,2362.5,333.9,2825.8,391.2,718.9,2388.6,2775.5,192.7,74,12.3
0.075000,723.3,311.6,2357.7,317.0,2831.8,374.2,725.2,2379.2,2773.4,192.9,74,12.2
0.077000,735.9,314.5,2358.8,310.0,2830.6,367.5,730.9,2368.2,2771.7,193.1,74.1,12
0.079000,747.2,315.3,2362.9,318.3,2819.0,373.9,736.1,2355.7,2770.4,193.2,74.1,11.7
0.081000,753.6,311.1,2364.1,347.7,2795.1,387.8,740.9,2341.9,2769.3,193.4,74.2,11.4
0.083000,755.0,300.9,2356.6,406.7,2759.4,389.3,745.3,2326.7,2768.3,193.5,74.2,11.2
0.085000,754.5,287.3,2331.8,487.3,2728.3,353.7,749.5,2310.3,2767.2,193.7,74.3,11.2
0.087000,756.2,276.8,2297.2,537.4,2721.3,303.6,753.5,2293,2766.1,193.8,74.4,11.5
0.089000,760.6,269.3,2266.3,548.1,2727.5,262.0,757.4,2275,2764.9,193.9,74.4,12.1
0.091000,765.5,262.5,2243.4,528.7,2735.6,236.7,761.2,2256.5,2763.5,194.1,74.5,12.8
0.093000,769.7,253.3,2225.1,487.4,2742.7,224.7,765.1,2237.6,2761.9,194.2,74.5,13.4
0.095000,772.4,243.0,2210.1,446.6,2746.7,224.7,769.2,2218.8,2760.1,194.3,74.5,13.7
0.097000,773.5,231.6,2193.1,425.1,2746.5,232.8,773.3,2200.1,2758.1,194.5,74.5,13.7
0.099000,774.8,221.1,2172.2,421.9,2744.0,242.9,777.7,2181.9,2756,194.6,74.6,13.3
0.101000,778.2,214.5,2153.1,418.5,2744.8,248.0,782.3,2164.3,2753.9,194.7,74.6,12.8
0.103000,783.6,210.2,2138.1,403.9,2751.0,249.2,787.1,2147.5,2751.9,194.8,74.7,12.5
0.105000,789.4,206.9,2127.9,380.1,2759.6,248.1,792.1,2131.7,2749.9,194.9,74.8,12.5
0.107000,795.3,202.9,2117.5,351.2,2766.6,246.0,797.2,2117,2748.2,195,74.9,12.9
0.109000,800.6,198.0,2105.5,324.2,2768.8,245.0,802.5,2103.3,2746.7,195.1,75,13.7
0.111000,805.7,192.6,2093.2,300.0,2767.8,245.3,807.8,2090.8,2745.7,195.2,75.1,14.6
0.113000,810.9,187.3,2083.8,278.2,2765.7,245.0,813.1,2079.5,2745.1,195.2,75.2,15.4
0.115000,816.2,183.6,2078.5,260.3,2763.6,243.5,818.4,2069.1,2745,195.3,75.4,15.9
0.117000,822.3,180.4,2073.9,245.6,2759.4,245.6,823.4,2059.8,2745.5,195.4,75.5,16
0.119000,827.5,176.5,2066.7,236.7,2752.4,256.8,828.2,2051.3,2746.6,195.4,75.6,15.8
0.121000,831.6,171.7,2056.2,232.1,2744.4,276.6,832.6,2043.5,2748.4,195.5,75.7,15.5
0.123000,834.8,167.4,2044.4,229.9,2740.0,299.5,836.6,2036.2,2750.8,195.5,75.8,15.3
0.125000,837.6,165.3,2034.1,229.8,2742.7,317.8,840.1,2029.4,2753.8,195.6,75.9,15.3
0.127000,841.0,165.2,2024.3,231.8,2748.3,328.6,843.1,2022.8,2757.4,195.6,75.9,15.7
0.129000,844.5,166.4,2015.5,233.5,2751.2,329.0,845.4,2016.2,2761.6,195.7,75.9,16.3
0.131000,848.1,168.3,2006.8,230.8,2753.9,322.5,847,2009.6,2766.2,195.7,76,17
0.133000,850.9,170.1,1998.6,221.0,2761.5,315.4,848,2002.9,2771.3,195.8,76,17.7
0.135000,852.6,171.0,1990.0,205.4,2774.2,310.8,848.4,1995.9,2776.7,195.8,76,18.1
0.137000,852.9,169.6,1980.2,187.0,2786.8,310.7,848.1,1988.7,2782.4,195.8,76,18.3
0.139000,851.3,164.9,1970.3,171.1,2792.6,317.3,847.3,1981.2,2788.2,195.9,76,18.4
0.141000,848.0,157.8,1960.3,158.4,2792.0,327.5,845.9,1973.5,2794.1,195.9,76,18.5
0.143000,844.5,152.2,1952.2,149.5,2790.1,329.6,844.1,1965.6,2799.9,196,76,18.4
0.145000,841.2,149.3,1945.8,142.7,2792.3,319.6,841.9,1957.7,2805.6,196,76,18.3
0.147000,838.5,148.6,1941.3,136.6,2801.2,301.9,839.5,1949.8,2811,196,75.9,18.3
0.149000,837.0,149.3,1939.5,130.0,2815.5,285.5,836.9,1942.1,2816.2,196.1,75.9,18.1
0.151000,836.2,150.6,1939.0,122.1,2832.7,273.6,834.3,1934.8,2820.9,196.1,75.8,18
0.153000,835.8,152.1,1938.5,115.3,2847.0,270.5,831.8,1928,2825.1,196.1,75.6,17.7
0.155000,834.8,153.8,1937.2,111.3,2855.7,279.7,829.4,1921.9,2828.9,196.2,75.5,17.3
0.157000,832.5,155.9,1934.1,111.9,2856.1,298.4,827.4,1916.7,2832,196.2,75.3,16.8
0.159000,828.4,158.8,1927.4,117.2,2846.7,313.6,825.7,1912.5,2834.5,196.3,75,16
0.161000,822.5,162.5,1915.6,126.8,2829.0,307.3,824.4,1909.4,2836.2,196.3,74.7,15.1
0.163000,816.2,166.7,1901.7,137.8,2814.9,281.7,823.6,1907.5,2837.3,196.3,74.4,14.5
0.165000,809.4,171.2,1888.9,149.4,2811.3,256.6,823.4,1906.9,2837.7,196.4,74,14.2
