time,f1,b1,f2,b2,f3,b3,f1p,f2p,f3p,f0,intensity,harmonicity
0.026000,636.9,293.1,1673.8,178.5,2856.4,238.6,653.9,1628.4,2826.5,195,74,3.2
0.028000,654.5,301.5,1670.7,181.3,2856.3,286.8,655,1626.7,2827.2,194.9,74.1,4.5
0.030000,658.1,286.4,1661.0,184.3,2855.2,327.9,656.6,1623.8,2828.2,194.8,74.2,6
0.032000,658.2,270.7,1643.7,187.1,2850.9,360.4,658.9,1619.8,2829.5,194.7,74.4,7.5
0.034000,658.9,260.6,1622.2,188.6,2840.9,386.5,661.6,1614.7,2831.1,194.6,74.6,9
0.036000,660.2,253.4,1600.7,188.2,2823.8,404.1,664.8,1608.5,2832.7,194.5,74.8,10.3
0.038000,662.1,248.1,1581.6,185.5,2805.5,404.4,668.3,1601.2,2834.3,194.4,75,11.5
0.040000,665.3,246.9,1565.9,180.4,2796.7,391.4,672.1,1592.8,2835.8,194.2,75.1,12.6
0.042000,670.1,251.2,1553.0,173.8,2801.0,381.5,675.9,1583.3,2836.9,194.1,75.2,13.7
0.044000,676.4,260.5,1542.3,167.1,2813.2,382.6,679.7,1572.8,2837.5,194,75.2,14.6
0.046000,683.1,273.1,1533.1,161.1,2825.9,385.9,683.3,1561.3,2837.4,193.8,75.2,15.5
0.048000,689.3,287.2,1525.5,156.7,2832.6,377.6,686.6,1548.9,2836.6,193.7,75.2,16.1
0.050000,695.8,304.1,1518.2,154.4,2832.5,357.5,689.5,1535.6,2834.8,193.6,75.1,16.7
0.052000,703.2,322.6,1510.8,155.6,2828.3,340.7,691.9,1521.4,2831.9,193.4,75.1,17.2
0.054000,710.7,341.1,1502.2,161.0,2823.7,339.5,693.6,1506.6,2827.8,193.3,75,17.8
0.056000,715.5,357.5,1490.6,169.8,2820.6,355.6,694.5,1491.1,2822.4,193.2,75,18.3
0.058000,716.1,370.8,1475.2,179.3,2818.6,380.7,694.6,1475,2815.7,193,75,19
0.060000,713.1,381.0,1456.6,186.4,2814.4,405.0,693.9,1458.5,2807.6,192.9,75,19.7
0.062000,706.0,386.1,1435.9,188.0,2803.0,427.7,692.2,1441.7,2798.1,192.8,75,20.3
0.064000,695.4,384.2,1414.5,181.6,2783.5,449.4,689.5,1424.6,2787.4,192.7,75.1,20.7
0.066000,683.6,376.7,1394.6,166.7,2763.5,466.1,685.9,1407.5,2775.3,192.6,75.2,20.6
0.068000,673.6,367.2,1378.5,147.2,2753.3,473.6,681.3,1390.4,2762,192.5,75.3,20.2
0.070000,665.0,356.0,1364.9,126.5,2752.3,475.0,675.8,1373.5,2747.7,192.4,75.4,19.5
0.072000,656.6,341.7,1353.9,109.7,2751.0,479.0,669.5,1356.8,2732.4,192.4,75.6,18.7
0.074000,647.5,324.2,1344.5,98.1,2741.1,489.1,662.3,1340.6,2716.4,192.3,75.7,18
0.076000,638.8,306.6,1336.1,91.0,2724.0,496.9,654.5,1324.8,2699.9,192.3,75.7,17.5
0.078000,630.9,290.6,1328.3,87.2,2706.1,496.5,646,1309.6,2682.9,192.2,75.8,17.2
0.080000,623.8,276.3,1320.7,86.6,2689.8,490.0,637.1,1295.1,2665.9,192.2,75.8,17
0.082000,617.5,264.7,1312.9,89.4,2673.3,481.4,627.7,1281.3,2648.9,192.2,75.8,16.8
0.084000,611.9,256.3,1303.7,96.1,2654.1,472.9,618.1,1268.2,2632.1,192.2,75.8,16.5
0.086000,606.2,249.4,1291.9,106.9,2629.1,465.6,608.3,1256,2615.9,192.2,75.7,16.2
0.088000,599.5,242.4,1275.6,119.0,2597.6,457.5,598.5,1244.6,2600.3,192.2,75.7,15.8
0.090000,590.6,233.3,1251.9,128.2,2559.4,436.6,588.7,1234,2585.6,192.2,75.7,15.3
0.092000,580.6,223.3,1225.2,127.8,2528.5,394.7,579.2,1224.2,2572,192.2,75.6,14.9
0.094000,571.0,214.2,1202.4,116.3,2514.9,344.0,569.8,1215.1,2559.5,192.2,75.6,14.7
0.096000,562.9,206.9,1188.0,98.5,2514.4,302.3,560.9,1206.6,2548.2,192.2,75.6,14.6
0.098000,556.4,202.4,1179.9,82.6,2517.4,277.1,552.3,1198.7,2538.4,192.2,75.6,14.8
0.100000,550.5,200.3,1173.7,71.8,2518.1,266.4,544.3,1191.3,2529.9,192.3,75.6,15.2
0.102000,544.1,198.9,1167.1,64.6,2515.6,262.4,536.7,1184.3,2522.9,192.3,75.6,15.5
0.104000,536.9,196.7,1160.5,58.2,2512.2,258.4,529.7,1177.5,2517.3,192.3,75.5,15.8
0.106000,529.9,194.6,1155.2,52.3,2510.1,253.7,523.3,1170.9,2513.1,192.3,75.4,15.9
0.108000,523.0,193.9,1151.1,47.3,2509.5,251.1,517.4,1164.3,2510.2,192.4,75.3,15.8
0.110000,516.4,195.0,1147.7,44.6,2510.4,252.5,512,1157.6,2508.6,192.4,75.2,15.7
0.112000,510.1,198.1,1144.4,44.8,2513.2,255.2,507.1,1150.8,2508,192.4,75,15.6
0.114000,504.3,203.1,1141.1,48.3,2518.8,254.5,502.8,1143.7,2508.4,192.5,74.8,15.5
0.116000,499.3,209.3,1138.0,55.5,2526.7,248.5,498.8,1136.3,2509.5,192.5,74.7,15.5
0.118000,495.4,215.5,1134.9,67.8,2534.8,238.7,495.2,1128.6,2511.4,192.5,74.5,15.4
0.120000,492.5,222.2,1130.3,86.6,2540.9,228.2,491.9,1120.5,2513.7,192.5,74.3,15.3
0.122000,490.4,230.8,1121.6,111.6,2542.6,217.9,488.9,1112,2516.3,192.5,74.1,15.3
0.124000,487.9,240.0,1108.4,136.5,2538.5,206.7,486.1,1103.2,2519,192.5,74,15.7
0.126000,484.8,246.7,1095.1,152.3,2531.5,195.2,483.4,1094.2,2521.7,192.5,73.9,16.6
0.128000,481.4,252.0,1082.5,159.6,2525.6,184.5,480.8,1085,2524.2,192.5,73.9,18.1
0.130000,478.6,257.7,1070.2,161.4,2523.4,176.8,478.2,1075.8,2526.4,192.5,73.9,19.9
0.132000,475.6,263.5,1057.0,160.2,2523.5,171.9,475.6,1066.7,2528.1,192.5,73.9,21.8
0.134000,471.5,265.5,1044.3,156.2,2523.0,169.5,473.1,1057.9,2529.3,192.5,73.9,23.5
0.136000,466.2,261.7,1033.8,149.2,2520.9,170.4,470.4,1049.6,2529.8,192.5,73.9,24.7
0.138000,461.0,255.6,1026.5,141.5,2518.5,174.5,467.8,1042,2529.7,192.4,74,25.7
0.140000,457.2,251.3,1022.8,135.7,2517.9,178.8,465,1035.3,2528.9,192.4,74,26.5
0.142000,455.1,248.8,1022.3,133.1,2519.1,178.7,462.3,1029.8,2527.4,192.4,74,27.1
0.144000,453.9,245.0,1024.1,132.2,2519.7,173.0,459.5,1025.7,2525.2,192.3,74,27.5
0.146000,452.4,236.4,1027.6,130.6,2517.9,164.4,456.7,1023.2,2522.4,192.2,74,27.6
0.148000,450.2,225.0,1032.1,128.1,2514.7,159.2,453.9,1022.5,2518.9,192.2,73.9,27.5
0.150000,448.2,214.6,1038.0,126.1,2511.2,161.0,451.3,1023.8,2514.9,192.1,73.9,27.2
0.152000,446.7,206.5,1046.3,125.7,2507.4,169.8,448.7,1027.3,2510.5,192,73.9,26.8
0.154000,445.9,200.0,1057.7,126.0,2502.0,180.6,446.4,1033.1,2505.7,191.9,73.8,26.4
0.156000,445.3,193.9,1072.3,125.1,2495.4,185.2,444.2,1041.4,2500.7,191.8,73.8,26.1
0.158000,444.8,188.1,1088.7,121.2,2489.5,180.5,442.3,1052.2,2495.6,191.7,73.8,25.9
0.160000,444.0,182.5,1105.0,114.1,2485.0,171.9,440.7,1065.5,2490.4,191.5,73.8,25.7
0.162000,442.7,176.9,1119.2,105.2,2481.1,167.3,439.5,1081.2,2485.3,191.4,73.7,25.4
0.164000,441.3,172.6,1131.0,97.0,2477.3,169.1,438.6,1099.4,2480.4,191.2,73.7,24.8
0.166000,440.4,170.6,1142.3,89.5,2473.4,175.3,438,1119.9,2475.7,191,73.7,23.8
0.168000,440.2,171.0,1153.1,82.5,2469.5,181.1,437.9,1142.4,2471.4,190.8,73.7,22.2
0.170000,440.5,173.9,1163.6,76.2,2465.6,182.5,438.2,1166.9,2467.4,190.6,73.7,20.2
0.172000,441.2,180.4,1174.0,72.6,2462.8,181.1,438.8,1192.9,2463.9,190.4,73.6,18.3
0.174000,442.6,191.7,1185.2,73.8,2462.1,183.4,439.8,1220.3,2460.9,190.2,73.6,16.6
0.176000,444.9,206.6,1198.8,82.1,2463.8,195.0,441.1,1248.6,2458.3,189.9,73.5,15.6
0.178000,447.8,221.5,1217.4,99.8,2466.7,217.0,442.6,1277.5,2456.2,189.7,73.4,15
0.180000,451.0,229.1,1247.0,125.0,2469.6,244.5,444.5,1306.5,2454.5,189.4,73.3,14.6
0.182000,452.3,220.6,1288.6,139.2,2472.4,266.4,446.5,1335.3,2453.3,189.2,73.2,14.4
0.184000,450.8,204.8,1325.0,129.0,2473.3,271.6,448.6,1363.5,2452.4,188.9,73.2,14.2
0.186000,449.3,198.4,1349.4,112.6,2472.1,267.0,450.8,1390.5,2451.9,188.6,73.1,13.9
0.188000,450.2,206.3,1367.1,107.2,2470.2,266.2,453,1416,2451.7,188.3,73,13.6
0.190000,453.1,221.5,1387.2,114.6,2467.8,274.8,455.1,1439.6,2451.6,188,73,13.4
0.192000,457.1,235.6,1415.4,133.3,2464.5,290.4,457.1,1460.9,2451.8,187.7,72.9,13.2
0.194000,461.0,242.7,1454.9,159.8,2461.0,308.8,458.9,1479.6,2452,187.4,72.7,12.9
0.196000,463.4,241.2,1504.7,185.4,2458.1,328.2,460.4,1495.3,2452.3,187.1,72.6,12.7
0.198000,463.2,234.9,1554.5,197.9,2454.2,352.5,461.7,1507.8,2452.6,186.9,72.4,12.5
0.200000,460.1,229.0,1591.1,194.5,2442.8,389.4,462.6,1516.9,2452.8,186.6,72.2,12.4
0.202000,455.2,224.3,1612.5,183.1,2419.1,435.5,463.2,1522.4,2452.9,186.3,71.9,12.1
0.204000,449.7,221.0,1630.3,169.0,2385.1,483.6,463.4,1524.2,2453,186.1,71.5,11.7
