time,f1,b1,f2,b2,f3,b3,f1p,f2p,f3p,f0,intensity,harmonicity
0.025000,1021.8,120.2,1970.0,516.3,2648.6,455.3,1052.4,1868.1,2686.8,190.8,70.6,6.4
0.027000,1028.1,120.1,1885.9,380.6,2702.5,451.5,1052.3,1865.3,2683.5,190.3,70.9,6.2
0.029000,1037.7,115.1,1835.5,261.6,2746.0,425.3,1052.3,1860.8,2678,189.7,71.3,5.3
0.031000,1047.4,117.2,1816.3,208.5,2732.6,394.9,1052.2,1854.7,2670.7,189.1,71.7,4.1
0.033000,1055.7,127.3,1814.0,194.9,2687.4,372.8,1052.1,1847.2,2661.8,188.5,72.3,3
0.035000,1061.8,135.9,1814.5,190.8,2647.1,351.8,1052.1,1838.6,2651.6,187.9,72.9,2.5
0.037000,1065.0,138.2,1812.9,186.0,2619.1,334.7,1052.2,1829.2,2640.4,187.3,73.5,2.4
0.039000,1065.0,137.4,1809.3,183.9,2598.3,334.4,1052.5,1819.3,2628.7,186.7,74,2.5
0.041000,1063.4,137.6,1804.3,189.6,2580.6,356.8,1052.9,1809.1,2617,186.1,74.5,2.9
0.043000,1062.1,139.1,1797.6,202.9,2563.0,390.3,1053.5,1799.1,2605.5,185.5,74.9,3.6
0.045000,1063.0,139.1,1788.6,218.0,2550.8,406.2,1054.3,1789.4,2594.7,184.9,75.2,4.6
0.047000,1066.4,135.9,1778.9,227.8,2551.3,388.4,1055.3,1780.5,2584.9,184.3,75.4,6.3
0.049000,1070.6,130.1,1772.0,230.2,2561.5,354.9,1056.5,1772.4,2576.5,183.7,75.7,8.7
0.051000,1073.6,124.0,1769.9,228.3,2572.6,327.9,1058,1765.4,2569.7,183.2,75.9,11.2
0.053000,1074.1,119.9,1770.5,226.8,2577.4,316.9,1059.5,1759.7,2564.7,182.7,76.2,13.2
0.055000,1072.7,117.6,1769.5,227.7,2574.8,318.0,1061.2,1755.2,2561.5,182.2,76.4,14.2
0.057000,1069.7,116.0,1765.1,230.0,2567.6,326.7,1062.9,1752.1,2560.2,181.7,76.7,13.5
0.059000,1065.8,112.9,1758.4,228.6,2561.9,335.9,1064.5,1750.2,2560.8,181.2,76.9,11.5
0.061000,1061.3,107.3,1752.8,219.1,2564.7,340.2,1066.1,1749.5,2563.1,180.8,77.1,9.2
0.063000,1056.7,100.3,1750.2,204.2,2577.9,341.0,1067.4,1749.9,2567,180.4,77.3,7.3
0.065000,1053.3,95.0,1750.0,192.3,2593.7,341.6,1068.5,1751.2,2572.2,180,77.4,6.8
0.067000,1051.8,92.1,1751.2,187.4,2605.4,341.8,1069.1,1753.1,2578.5,179.6,77.5,8.3
0.069000,1052.6,91.5,1753.4,189.1,2611.7,337.9,1069.4,1755.6,2585.5,179.3,77.6,11
0.071000,1054.4,91.8,1756.4,193.6,2614.4,328.6,1069.1,1758.3,2593,179,77.6,14.3
0.073000,1055.1,92.0,1759.6,197.1,2615.1,317.6,1068.3,1761.1,2600.6,178.7,77.7,17.2
0.075000,1054.4,92.1,1762.8,199.0,2614.7,310.5,1066.9,1763.8,2608.1,178.5,77.7,18.9
0.077000,1053.7,93.1,1764.9,200.8,2613.8,310.0,1065,1766.2,2615.1,178.3,77.7,18.9
0.079000,1054.4,95.8,1764.9,204.4,2613.3,316.0,1062.4,1768.2,2621.5,178.1,77.8,17.8
0.081000,1056.2,100.2,1763.3,209.9,2614.5,325.9,1059.3,1769.8,2627.1,177.9,77.8,16.3
0.083000,1057.7,105.0,1762.3,214.8,2617.4,332.8,1055.7,1770.7,2631.7,177.7,77.8,15.1
0.085000,1057.6,109.0,1763.3,217.0,2620.9,330.6,1051.6,1771.2,2635.3,177.6,77.8,14.7
0.087000,1056.2,112.3,1765.9,217.2,2623.5,322.5,1047.1,1771.1,2637.9,177.5,77.8,15.5
0.089000,1053.5,114.7,1768.8,217.1,2624.8,316.6,1042.4,1770.6,2639.5,177.3,77.8,17.1
0.091000,1049.6,116.2,1770.5,217.6,2625.3,316.9,1037.4,1769.9,2640.2,177.2,77.8,19
0.093000,1044.5,117.2,1771.2,217.6,2626.2,318.2,1032.4,1769,2640.2,177.1,77.8,20.6
0.095000,1038.7,118.2,1771.5,215.0,2628.2,312.9,1027.3,1768.1,2639.6,177.1,77.8,21.4
0.097000,1032.7,119.7,1771.7,209.9,2631.1,300.4,1022.2,1767.4,2638.7,177,77.9,20.9
0.099000,1027.2,122.0,1772.6,203.7,2634.3,288.6,1017.3,1767,2637.6,176.9,77.9,19.7
0.101000,1022.6,124.3,1774.4,197.1,2637.5,284.1,1012.5,1767.1,2636.5,176.8,77.9,18.1
0.103000,1017.7,126.8,1776.4,190.5,2641.1,287.3,1008,1767.9,2635.7,176.8,78,16.7
0.105000,1012.0,128.8,1777.6,184.5,2644.6,289.4,1003.6,1769.4,2635.4,176.7,78,16
0.107000,1004.7,129.6,1777.6,179.4,2647.3,281.0,999.4,1771.6,2635.7,176.6,77.9,16.1
0.109000,996.4,129.4,1776.9,176.2,2649.2,263.1,995.3,1774.8,2636.7,176.6,77.9,16.7
0.111000,988.7,128.6,1777.1,174.9,2650.7,245.8,991.2,1778.7,2638.5,176.5,77.8,17.6
0.113000,982.1,127.4,1779.5,174.6,2652.7,236.1,987.2,1783.3,2641.1,176.4,77.8,18.4
0.115000,975.6,126.4,1784.3,175.1,2655.8,234.4,983.1,1788.6,2644.4,176.4,77.7,19
0.117000,968.8,125.1,1790.2,175.5,2659.1,235.8,978.7,1794.4,2648.5,176.3,77.6,19.3
0.119000,960.8,123.0,1796.7,175.0,2661.9,235.1,973.9,1800.5,2653.2,176.2,77.5,19.5
0.121000,952.3,120.3,1803.4,173.2,2664.1,231.4,968.7,1806.7,2658.4,176.1,77.4,19.6
0.123000,944.5,117.3,1809.7,168.9,2665.9,226.2,962.9,1812.8,2663.9,176,77.4,19.5
0.125000,937.5,114.0,1815.4,161.6,2667.4,221.5,956.5,1818.6,2669.4,175.9,77.3,19.3
0.127000,931.2,110.8,1820.2,152.6,2668.6,218.0,949.3,1823.8,2674.9,175.8,77.2,18.8
0.129000,925.0,107.5,1823.7,143.9,2670.0,215.2,941.2,1828.4,2680.1,175.7,77.1,18
0.131000,919.0,104.8,1825.8,138.1,2672.0,213.1,932.4,1832,2684.9,175.6,77,17.2
0.133000,913.1,103.4,1827.7,134.5,2675.3,211.1,922.7,1834.6,2689,175.5,76.8,16.4
0.135000,907.7,103.3,1830.3,131.7,2680.9,208.8,912.2,1836.2,2692.4,175.3,76.6,15.7
0.137000,902.7,105.2,1834.0,129.0,2688.8,206.3,901,1836.5,2694.9,175.2,76.3,15.2
0.139000,898.4,110.0,1837.9,127.0,2696.1,204.1,889.3,1835.8,2696.6,175.1,76,14.8
0.141000,894.5,118.8,1840.9,126.0,2699.1,202.2,877.1,1833.9,2697.4,174.9,75.6,14.5
0.143000,890.8,132.2,1841.9,126.6,2696.6,200.9,864.6,1831,2697.4,174.8,75.2,14.1
0.145000,886.7,151.0,1840.4,128.1,2692.0,197.8,852.1,1827.4,2696.6,174.6,74.8,13.6
0.147000,881.0,175.3,1835.9,129.7,2689.2,191.0,839.8,1823,2695.2,174.5,74.3,13
0.149000,872.6,205.3,1829.2,131.9,2689.6,182.2,827.9,1818.2,2693.2,174.3,73.8,12.4
0.151000,860.4,239.7,1821.4,134.3,2692.5,174.5,816.7,1813.3,2690.9,174.2,73.2,11.7
0.153000,842.0,277.3,1813.1,135.0,2696.2,169.6,806.3,1808.3,2688.4,174,72.6,10.8
0.155000,817.3,312.8,1805.1,133.3,2698.4,168.3,797.2,1803.6,2686,173.9,71.9,9.7
0.157000,788.9,345.0,1797.5,130.4,2697.3,168.8,789.3,1799.5,2683.7,173.7,71.1,11.2
0.159000,763.3,375.8,1791.5,127.4,2692.4,167.9,783,1796,2681.7,173.6,70.1,15.5
0.161000,743.6,416.1,1787.1,126.7,2684.5,166.0,778.4,1793.4,2680.2,173.5,69,18.2
0.163000,727.2,476.0,1782.3,131.7,2674.4,167.8,775.6,1791.8,2679.3,173.3,67.7,14.6
0.165000,698.6,556.0,1774.5,145.8,2663.7,179.7,774.7,1791.2,2678.9,173.2,66.3,0.5
