time,f1,b1,f2,b2,f3,b3,f1p,f2p,f3p,f0,intensity,harmonicity
0.025000,542.1,108.5,2136.4,217.1,2768.0,154.2,556.9,2135,2774.2,186.6,73.7,0.9
0.027000,551.5,112.6,2138.3,219.6,2775.1,151.2,559.4,2134.9,2775.2,186.6,73.9,2.1
0.029000,559.8,119.9,2136.8,224.1,2779.1,153.6,563.7,2134.9,2776.9,186.7,74.1,4.3
0.031000,567.5,130.3,2132.3,229.9,2778.8,157.9,569.5,2134.8,2779.3,186.7,74.2,6.9
0.033000,575.8,144.0,2127.1,236.1,2777.0,161.8,576.8,2134.8,2782.2,186.7,74.2,9.3
0.035000,585.9,162.1,2125.5,241.3,2779.8,164.0,585.5,2134.7,2785.7,186.8,74.2,10.8
0.037000,598.5,187.8,2130.1,244.3,2791.0,162.9,595.5,2134.6,2789.6,186.8,74.2,11.3
0.039000,612.3,218.7,2137.3,244.9,2804.5,157.6,606.5,2134.5,2794,186.9,74.1,11.1
0.041000,626.1,251.4,2141.5,247.9,2812.2,152.8,618.5,2134.4,2798.6,186.9,74.1,10.7
0.043000,638.3,280.9,2140.4,257.8,2812.7,153.7,631.2,2134.2,2803.5,187,74,10.4
0.045000,649.4,304.7,2135.9,271.5,2811.5,159.9,644.5,2134.1,2808.5,187,74,10.6
0.047000,661.6,324.3,2132.9,281.2,2813.6,167.6,658.2,2134,2813.5,187.1,74,11.5
0.049000,676.2,340.5,2133.5,285.1,2819.4,175.2,672.1,2133.8,2818.5,187.2,74,13
0.051000,689.8,348.7,2135.5,288.1,2823.7,182.1,686,2133.6,2823.4,187.2,74,14.6
0.053000,701.5,349.8,2135.9,294.7,2823.3,188.7,699.7,2133.4,2828.1,187.3,74,16
0.055000,713.6,349.8,2134.8,300.6,2819.9,193.3,713.1,2133.1,2832.6,187.4,74.1,16.9
0.057000,728.5,353.8,2134.3,299.3,2818.1,194.3,726.1,2132.7,2836.8,187.5,74.1,17.3
0.059000,745.8,361.0,2134.7,290.8,2821.4,193.5,738.5,2132.3,2840.7,187.6,74.2,17.3
0.061000,759.8,363.5,2134.0,284.8,2829.7,197.3,750.1,2131.8,2844.2,187.6,74.3,17
0.063000,764.8,355.1,2130.3,292.6,2842.1,214.1,761,2131.2,2847.3,187.7,74.3,16.5
0.065000,765.0,341.6,2125.0,310.7,2855.5,241.5,771.1,2130.4,2850,187.8,74.3,16
0.067000,769.0,332.1,2122.1,324.4,2867.4,267.7,780.3,2129.5,2852.4,187.9,74.4,15.2
0.069000,778.3,329.0,2124.5,325.3,2875.0,282.0,788.5,2128.5,2854.3,188,74.4,14.1
0.071000,789.2,326.3,2129.0,318.1,2877.6,285.5,795.9,2127.3,2856,188.1,74.5,13
0.073000,797.5,317.5,2131.1,311.6,2875.7,284.2,802.4,2125.9,2857.3,188.2,74.6,12
0.075000,802.5,302.5,2128.6,310.4,2870.3,280.4,808.1,2124.4,2858.4,188.2,74.7,11.6
0.077000,806.2,287.4,2122.9,313.6,2863.8,275.6,813,2122.7,2859.3,188.3,74.8,11.7
0.079000,810.7,275.3,2116.8,315.5,2857.9,271.1,817.2,2120.7,2860,188.4,74.9,12.3
0.081000,816.6,266.7,2113.0,308.5,2852.8,266.8,820.8,2118.7,2860.6,188.5,75,13.1
0.083000,823.4,260.5,2111.8,290.7,2848.4,262.2,823.9,2116.4,2861.2,188.5,75.1,13.9
0.085000,828.5,254.3,2111.4,272.7,2847.3,263.5,826.6,2114,2861.7,188.6,75.2,14.5
0.087000,830.8,246.9,2110.5,261.6,2850.9,274.4,828.9,2111.4,2862.3,188.6,75.3,14.8
0.089000,833.3,239.2,2109.0,253.2,2856.5,288.7,831.1,2108.7,2863.1,188.7,75.4,15
0.091000,836.6,232.0,2107.3,246.4,2860.3,299.5,833.1,2105.8,2863.9,188.7,75.5,15.2
0.093000,840.0,225.2,2105.7,241.5,2862.0,307.4,835.1,2102.9,2865,188.7,75.5,15.4
0.095000,842.8,219.3,2104.0,238.2,2862.6,313.3,837.2,2099.9,2866.3,188.8,75.6,15.7
0.097000,845.1,214.7,2101.8,236.1,2863.8,319.0,839.4,2096.9,2867.7,188.8,75.7,16.1
0.099000,847.2,211.3,2098.6,234.2,2866.6,324.6,841.8,2093.9,2869.5,188.8,75.7,16.6
0.101000,849.6,209.3,2093.9,231.3,2871.3,329.2,844.4,2090.8,2871.5,188.8,75.8,17.1
0.103000,852.2,208.0,2088.6,227.2,2876.8,334.1,847.3,2087.8,2873.7,188.7,75.8,17.5
0.105000,855.2,205.5,2084.0,221.1,2881.6,342.3,850.4,2084.9,2876.1,188.7,75.9,17.7
0.107000,858.1,201.5,2080.8,212.6,2884.7,353.2,853.8,2082,2878.8,188.7,75.9,17.4
0.109000,860.4,197.0,2078.1,204.0,2887.3,361.9,857.5,2079.1,2881.7,188.6,76,16.7
0.111000,861.6,193.3,2075.0,197.5,2890.8,361.4,861.3,2076.4,2884.7,188.6,76.1,16
0.113000,862.9,191.7,2071.3,192.9,2894.6,347.7,865.3,2073.8,2887.8,188.5,76.1,15.5
0.115000,865.2,191.9,2068.6,188.9,2897.6,326.7,869.4,2071.3,2891.1,188.5,76.1,15.5
0.117000,868.5,192.9,2067.0,185.1,2901.2,306.4,873.5,2068.8,2894.4,188.4,76.2,16.2
0.119000,872.3,194.0,2066.1,181.0,2905.1,291.5,877.5,2066.5,2897.7,188.3,76.2,17.5
0.121000,876.1,194.4,2065.0,175.0,2907.2,282.9,881.5,2064.3,2901,188.2,76.2,19
0.123000,879.7,194.1,2063.2,167.7,2907.1,280.1,885.2,2062.1,2904.2,188.1,76.2,20.2
0.125000,883.1,193.1,2060.9,160.8,2906.3,277.6,888.6,2060,2907.4,188,76.3,20.7
0.127000,887.0,191.9,2058.4,155.7,2906.3,267.8,891.7,2058,2910.4,187.9,76.3,20.3
0.129000,891.0,191.5,2055.9,153.2,2906.3,251.9,894.4,2056,2913.2,187.8,76.3,19.2
0.131000,895.0,192.1,2053.0,152.2,2904.3,236.7,896.6,2054,2915.9,187.7,76.3,17.9
0.133000,898.1,193.7,2050.2,151.0,2901.1,228.7,898.2,2052,2918.4,187.6,76.3,16.7
0.135000,899.6,195.9,2048.0,149.0,2900.6,228.8,899.3,2050.1,2920.7,187.4,76.3,16.1
0.137000,899.2,197.7,2046.5,145.6,2905.9,232.4,899.8,2048.1,2922.8,187.3,76.3,16.3
0.139000,897.8,199.2,2045.3,139.9,2916.4,233.2,899.7,2046.1,2924.7,187.2,76.3,17.1
0.141000,896.9,200.7,2044.0,133.3,2927.6,229.1,899,2044,2926.3,187,76.3,18
0.143000,897.0,202.4,2042.7,127.1,2936.8,221.5,897.8,2041.9,2927.7,186.9,76.2,18.7
0.145000,897.9,204.2,2040.9,122.1,2942.8,211.8,896,2039.9,2928.9,186.8,76.1,18.9
0.147000,898.2,206.1,2038.7,119.1,2944.1,200.7,893.8,2037.8,2929.9,186.6,76,18.2
0.149000,897.3,208.2,2035.9,118.3,2940.6,188.3,891.1,2035.6,2930.8,186.5,75.9,16.9
0.151000,895.5,210.7,2033.0,119.2,2935.5,177.2,888.2,2033.6,2931.4,186.3,75.8,15.4
0.153000,893.2,213.3,2030.8,121.2,2933.0,172.1,885,2031.5,2931.9,186.2,75.6,14.1
0.155000,890.3,216.7,2030.5,123.3,2935.4,174.9,881.6,2029.5,2932.3,186,75.5,13.5
0.157000,886.4,221.3,2031.2,124.2,2940.3,179.1,878.2,2027.6,2932.5,185.9,75.3,13.7
0.159000,881.2,226.4,2031.2,123.5,2942.4,174.5,874.8,2025.8,2932.7,185.8,75.1,14.6
0.161000,874.8,231.5,2029.2,121.6,2939.8,157.5,871.5,2024.1,2932.8,185.6,74.9,15.7
0.163000,868.4,236.3,2026.1,119.3,2935.7,136.4,868.5,2022.6,2932.9,185.5,74.7,16.6
0.165000,863.2,242.0,2023.2,116.0,2932.8,118.9,865.8,2021.3,2932.9,185.4,74.4,16.8
0.167000,860.1,249.5,2021.1,112.5,2931.1,108.2,863.4,2020.2,2932.8,185.3,74.2,16.3
0.169000,858.3,259.7,2019.1,109.7,2929.3,102.2,861.5,2019.3,2932.8,185.1,73.9,15.2
0.171000,856.3,273.4,2016.6,108.7,2926.8,99.4,860.2,2018.6,2932.8,185,73.6,13.9
0.173000,852.5,290.4,2013.1,109.3,2923.5,98.8,859.3,2018.2,2932.8,184.9,73.2,12.5
0.175000,845.9,310.0,2008.4,110.4,2919.7,99.2,859,2018.1,2932.8,184.8,72.8,11.2
