time,f1,b1,f2,b2,f3,b3,f1p,f2p,f3p,f0,intensity,harmonicity
0.025000,857.5,663.0,1410.7,290.4,2661.5,201.2,852.1,1393.1,2646.7,200.9,73.4,5.1
0.027000,876.9,532.7,1381.2,279.2,2660.5,218.5,848.7,1391.6,2647.5,200.8,73.9,5.9
0.029000,860.7,486.1,1355.2,223.9,2656.0,231.2,843,1389,2648.8,200.7,74.3,6.5
0.031000,839.7,445.3,1349.8,169.5,2649.7,221.5,835.3,1385.4,2650.6,200.7,74.5,7.1
0.033000,827.4,404.5,1354.7,138.1,2645.8,196.0,825.6,1380.9,2652.8,200.6,74.7,7.8
0.035000,816.6,372.1,1362.4,123.3,2646.2,171.7,814.2,1375.5,2655.4,200.5,74.9,8.8
0.037000,801.8,356.2,1369.9,122.3,2650.1,162.3,801.2,1369.4,2658.3,200.4,75,10.1
0.039000,781.7,354.4,1375.7,131.5,2655.9,174.7,787,1362.6,2661.5,200.4,75.1,11.7
0.041000,757.6,356.3,1377.9,145.3,2663.1,212.9,771.8,1355.3,2664.9,200.3,75.1,13.4
0.043000,732.7,353.4,1375.1,157.0,2670.1,270.7,756,1347.4,2668.4,200.2,75.2,14.9
0.045000,711.8,344.5,1367.0,161.6,2672.3,312.6,739.7,1339.2,2672,200.2,75.3,16
0.047000,697.2,334.6,1355.4,160.4,2669.6,297.0,723.2,1330.8,2675.6,200.1,75.4,16.6
0.049000,687.3,327.9,1342.1,160.7,2669.6,244.1,706.8,1322.1,2679.1,200,75.5,16.8
0.051000,680.1,325.2,1329.0,168.1,2674.1,195.7,690.7,1313.4,2682.6,199.9,75.5,16.8
0.053000,674.4,324.8,1317.3,181.0,2681.0,168.0,675.1,1304.7,2686,199.8,75.6,16.7
0.055000,667.9,324.3,1305.9,193.7,2689.3,156.6,660.2,1296,2689.3,199.7,75.6,16.8
0.057000,659.3,322.3,1293.7,197.2,2696.9,156.5,646.1,1287.4,2692.5,199.7,75.6,17.1
0.059000,648.3,318.3,1279.1,188.3,2702.3,160.0,632.9,1279,2695.5,199.6,75.6,17.5
0.061000,634.8,311.2,1262.8,170.8,2704.9,162.0,620.7,1270.7,2698.4,199.5,75.7,17.9
0.063000,620.3,301.2,1248.0,151.1,2705.5,161.3,609.4,1262.7,2701.2,199.4,75.7,18.1
0.065000,607.2,291.2,1237.0,134.6,2705.6,158.0,599,1254.8,2704,199.3,75.7,18.2
0.067000,596.3,283.9,1229.9,124.3,2707.2,153.6,589.5,1247.1,2706.7,199.2,75.7,17.9
0.069000,587.6,279.8,1225.1,121.0,2711.6,150.7,580.9,1239.5,2709.4,199,75.7,17.4
0.071000,579.7,278.9,1220.3,124.1,2717.5,151.2,572.9,1232.1,2712.1,198.9,75.7,16.8
0.073000,572.0,281.1,1214.3,129.9,2721.1,154.3,565.5,1224.7,2714.8,198.8,75.7,16.4
0.075000,563.1,285.5,1207.0,132.3,2720.6,157.1,558.6,1217.4,2717.5,198.7,75.6,16.2
0.077000,553.6,289.2,1200.1,127.1,2718.0,155.1,552,1210,2720.4,198.6,75.6,16.4
0.079000,544.3,290.3,1194.1,116.9,2717.3,146.2,545.6,1202.6,2723.2,198.4,75.7,16.9
0.081000,535.4,288.7,1188.4,106.7,2719.8,132.4,539.4,1195.1,2726.1,198.3,75.7,17.6
0.083000,526.9,285.7,1182.5,98.6,2724.0,118.1,533.1,1187.5,2729,198.2,75.7,18.2
0.085000,518.7,283.0,1176.8,92.8,2729.0,106.3,526.8,1179.7,2731.9,198,75.7,18.7
0.087000,511.3,282.7,1171.5,89.4,2734.3,97.2,520.3,1171.8,2734.8,197.9,75.8,19.1
0.089000,504.9,285.3,1166.9,88.6,2739.6,89.8,513.7,1163.8,2737.5,197.8,75.8,19.5
0.091000,499.5,288.8,1162.9,90.1,2743.8,83.8,506.9,1155.7,2740.1,197.6,75.8,19.8
0.093000,494.2,290.0,1158.2,93.1,2746.8,79.0,499.9,1147.4,2742.4,197.5,75.8,20.1
0.095000,488.8,286.1,1152.5,96.4,2748.2,75.8,492.8,1139.2,2744.4,197.4,75.8,20.5
0.097000,483.2,278.4,1145.8,99.9,2748.6,74.0,485.7,1131,2746.1,197.2,75.8,21
0.099000,477.7,270.4,1138.3,104.0,2748.4,73.2,478.5,1122.9,2747.3,197.1,75.9,21.5
0.101000,472.4,264.0,1130.5,108.6,2747.8,72.7,471.4,1115,2748.1,197,75.9,22
0.103000,467.2,258.2,1122.5,113.2,2747.0,72.2,464.6,1107.5,2748.4,196.9,75.9,22.5
0.105000,462.1,250.7,1114.4,117.0,2745.7,71.6,458,1100.4,2748.2,196.8,76,22.9
0.107000,456.6,240.1,1106.2,119.6,2743.7,71.9,451.8,1093.9,2747.4,196.7,76,23.1
0.109000,450.8,226.5,1097.6,120.6,2741.2,73.3,446,1088.1,2746.2,196.6,76.1,23.1
0.111000,445.1,212.5,1088.7,119.9,2738.7,75.0,440.8,1083.1,2744.5,196.5,76.1,23.1
0.113000,439.5,199.2,1078.7,118.3,2736.6,75.9,436.2,1079.1,2742.4,196.4,76.1,23.2
0.115000,434.4,187.4,1068.2,116.7,2735.0,75.4,432.3,1076.1,2739.9,196.3,76.2,23.4
0.117000,430.0,176.7,1058.2,115.8,2733.7,74.0,429,1074.3,2737.2,196.2,76.2,23.9
0.119000,426.4,167.4,1050.9,116.3,2732.3,72.4,426.4,1073.8,2734.4,196.1,76.3,24.5
0.121000,423.9,160.5,1048.5,118.9,2731.3,71.1,424.5,1074.7,2731.5,196,76.3,25.2
0.123000,422.7,156.8,1051.8,124.4,2731.2,70.6,423.2,1077,2728.8,196,76.4,25.8
0.125000,422.6,155.6,1060.3,132.7,2732.1,71.8,422.4,1080.7,2726.3,195.9,76.4,26.3
0.127000,422.9,155.5,1072.3,142.8,2733.0,75.3,422.1,1085.9,2724.2,195.8,76.5,26.6
0.129000,423.3,155.6,1085.3,152.6,2732.7,81.2,422.2,1092.6,2722.7,195.8,76.5,26.8
0.131000,423.6,155.7,1099.3,162.0,2730.9,90.2,422.5,1100.8,2721.8,195.7,76.5,27
0.133000,423.8,155.8,1112.7,170.5,2728.1,101.4,423.1,1110.4,2721.6,195.6,76.6,27
0.135000,423.9,155.3,1125.5,178.7,2725.7,114.0,423.7,1121.2,2722.3,195.6,76.6,27
0.137000,424.0,154.0,1139.1,187.9,2724.3,127.3,424.3,1133.3,2723.9,195.5,76.6,26.8
0.139000,424.2,151.8,1155.2,197.0,2724.9,140.9,424.7,1146.5,2726.4,195.5,76.7,26.5
0.141000,424.1,148.0,1173.6,201.8,2729.0,154.3,424.9,1160.6,2729.9,195.4,76.7,26.2
0.143000,423.3,142.2,1191.3,200.4,2736.0,164.9,424.9,1175.5,2734.4,195.3,76.7,25.8
0.145000,422.2,135.9,1206.4,196.2,2742.3,169.8,424.6,1191,2739.7,195.3,76.7,25.6
0.147000,420.9,130.2,1218.6,193.3,2746.1,172.5,423.8,1206.8,2745.8,195.2,76.8,25.4
0.149000,419.6,125.5,1228.6,194.3,2749.1,178.8,422.8,1222.9,2752.7,195.1,76.8,25.3
0.151000,418.2,121.5,1238.9,200.2,2752.9,193.3,421.4,1238.9,2760.1,195.1,76.8,25.3
0.153000,416.9,118.1,1250.9,211.2,2756.6,216.7,419.7,1254.7,2767.9,195,76.8,25.3
0.155000,415.7,115.3,1266.2,225.2,2759.8,245.5,417.7,1270,2776,194.9,76.8,25.3
0.157000,414.6,112.6,1284.8,239.2,2764.6,272.1,415.5,1284.5,2784.1,194.8,76.8,25.4
0.159000,413.7,109.5,1305.7,249.2,2775.1,286.9,413.3,1298.2,2792.1,194.8,76.7,25.6
0.161000,412.7,105.0,1327.1,249.8,2793.9,278.3,411,1310.8,2799.7,194.7,76.7,25.8
0.163000,411.4,99.1,1344.7,236.6,2815.7,245.8,408.8,1322.2,2806.7,194.6,76.6,25.9
0.165000,409.7,92.4,1352.1,211.4,2831.9,208.7,406.7,1332,2813,194.5,76.5,25.8
0.167000,407.7,86.2,1348.0,181.8,2840.4,183.9,404.9,1340.3,2818.4,194.4,76.4,25.4
0.169000,405.7,81.6,1339.0,157.1,2842.0,173.6,403.4,1346.9,2822.8,194.3,76.2,24.7
0.171000,403.6,77.8,1330.1,141.1,2836.7,172.0,402.3,1351.7,2826,194.2,76,24
0.173000,401.4,75.3,1325.6,138.1,2824.5,176.1,401.6,1354.6,2828,194.2,75.7,23.2
0.175000,399.3,75.5,1328.2,148.4,2808.4,188.1,401.3,1355.5,2828.6,194.1,75.4,22.4
