time,f1,b1,f2,b2,f3,b3,f1p,f2p,f3p,f0,intensity,harmonicity
0.026000,360.0,69.0,2151.5,279.5,2866.9,243.2,373.7,2144.8,2825.7,200.6,71.8,5.3
0.028000,363.9,58.9,2147.2,267.4,2823.2,251.1,374.2,2146.3,2821.2,200.7,72.5,5.8
0.030000,366.9,55.0,2147.3,245.6,2791.2,226.4,375,2148.8,2813.7,200.8,73.2,5.9
0.032000,371.7,54.7,2149.3,225.1,2778.0,198.6,376.2,2152,2803.6,200.9,73.7,6
0.034000,378.7,54.1,2150.8,209.1,2775.1,180.1,377.6,2155.8,2791,200.9,74.3,6.3
0.036000,385.2,50.9,2152.2,196.3,2773.1,171.5,379.3,2160,2776.2,201,74.8,6.7
0.038000,389.6,46.4,2156.1,183.8,2767.9,170.6,381.1,2164.4,2759.6,201.1,75.3,7.3
0.040000,391.8,43.0,2163.9,173.1,2757.7,178.0,383.1,2168.7,2741.6,201.2,75.8,7.9
0.042000,393.2,41.3,2174.1,166.7,2742.2,194.4,385.2,2172.5,2722.5,201.3,76.2,8.6
0.044000,394.6,40.2,2184.9,167.1,2718.7,222.8,387.4,2175.7,2702.8,201.3,76.5,9.5
0.046000,396.0,39.3,2191.7,174.1,2688.2,251.6,389.6,2178,2683,201.4,76.8,10.5
0.048000,397.0,38.3,2192.0,184.5,2651.9,261.8,391.7,2179.1,2663.3,201.5,77.1,11.8
0.050000,397.5,37.4,2185.0,192.0,2622.1,245.8,393.7,2178.7,2644.2,201.6,77.3,13.3
0.052000,397.6,36.7,2174.8,193.7,2603.9,225.0,395.6,2176.8,2625.9,201.6,77.5,14.8
0.054000,397.5,35.9,2163.8,193.2,2591.2,212.5,397.3,2173.1,2608.9,201.7,77.7,16.2
0.056000,397.4,35.2,2154.6,193.6,2581.1,210.9,398.7,2167.5,2593.3,201.7,77.9,17.6
0.058000,397.4,34.5,2148.7,195.9,2573.3,213.7,400,2160.1,2579.2,201.8,78,19
0.060000,397.6,34.2,2145.3,199.1,2568.7,212.7,401,2150.7,2566.9,201.8,78.1,20.4
0.062000,397.8,34.8,2142.6,202.0,2566.9,202.8,401.7,2139.5,2556.3,201.8,78.2,21.7
0.064000,398.3,36.2,2137.6,206.7,2564.2,184.6,402.2,2126.5,2547.5,201.8,78.2,22.8
0.066000,399.0,38.1,2127.2,214.5,2558.0,162.5,402.4,2111.9,2540.4,201.9,78.2,23.7
0.068000,399.5,39.6,2110.5,224.1,2550.0,142.6,402.4,2095.8,2534.9,201.9,78.2,24.3
0.070000,399.7,40.3,2087.2,234.8,2542.3,127.8,402.1,2078.5,2530.9,201.9,78.2,24.6
0.072000,399.4,40.0,2060.4,244.2,2536.9,120.3,401.7,2060.2,2528.2,201.9,78.2,24.9
0.074000,398.9,39.4,2033.0,249.5,2533.5,118.6,401,2041,2526.7,201.9,78.2,25.1
0.076000,398.4,38.7,2004.7,249.2,2530.6,121.3,400.3,2021.2,2526,201.9,78.1,25.4
0.078000,398.0,38.2,1980.8,240.5,2527.5,126.9,399.4,2001.2,2526.2,201.9,78,25.8
0.080000,397.7,38.2,1964.9,225.1,2524.9,132.9,398.5,1981,2526.8,201.9,77.9,26.2
0.082000,397.5,38.4,1954.2,205.7,2523.2,138.9,397.5,1960.9,2527.9,201.9,77.8,26.4
0.084000,397.3,38.8,1946.3,189.4,2522.0,144.2,396.5,1941.1,2529.2,201.8,77.7,26.4
0.086000,397.1,39.1,1935.6,178.9,2519.3,148.7,395.6,1921.7,2530.6,201.8,77.5,26
0.088000,396.7,39.3,1918.7,175.4,2514.7,150.4,394.8,1902.8,2532,201.8,77.4,25.1
0.090000,396.2,39.4,1895.8,174.7,2510.8,148.7,394,1884.6,2533.3,201.7,77.2,23.9
0.092000,395.5,39.6,1867.5,170.1,2511.3,144.8,393.3,1867.2,2534.6,201.7,77.1,22.8
0.094000,394.7,40.1,1841.2,156.9,2518.5,141.0,392.8,1850.5,2535.8,201.7,76.9,22.1
0.096000,394.1,40.8,1822.6,138.8,2529.0,138.9,392.5,1834.5,2536.9,201.6,76.8,21.9
0.098000,393.7,41.8,1810.0,120.4,2538.8,137.4,392.2,1819.3,2538,201.6,76.6,22.3
0.100000,393.7,43.2,1801.3,106.5,2545.6,135.0,392.1,1804.9,2539.3,201.5,76.5,23
0.102000,393.8,45.0,1793.8,97.8,2551.4,131.2,392.2,1791.2,2540.6,201.4,76.4,23.9
0.104000,394.1,47.1,1784.9,92.9,2558.8,127.4,392.4,1778.2,2542.2,201.4,76.3,24.8
0.106000,394.3,48.7,1775.3,92.0,2566.3,127.0,392.7,1765.8,2544.1,201.3,76.2,25.6
0.108000,394.2,49.5,1764.8,95.3,2571.7,131.3,393.1,1754.1,2546.3,201.2,76.2,26.6
0.110000,394.0,49.8,1754.1,102.0,2572.2,138.8,393.5,1743,2548.9,201.1,76.1,27.6
0.112000,393.9,50.0,1742.9,109.7,2568.6,146.9,394,1732.6,2552,201,76,28.5
0.114000,394.0,50.2,1729.6,116.0,2563.4,155.2,394.5,1722.9,2555.4,200.8,76,29.2
0.116000,394.1,50.0,1715.5,118.7,2559.6,162.5,395.1,1713.9,2559.2,200.7,76,29.5
0.118000,394.1,49.3,1702.4,118.5,2558.5,168.5,395.5,1705.8,2563.3,200.6,76,29.5
0.120000,394.1,48.1,1690.2,117.2,2558.9,174.0,396,1698.7,2567.6,200.4,76,29.3
0.122000,394.0,46.9,1681.2,115.7,2560.6,177.6,396.3,1692.6,2572,200.3,76,28.9
0.124000,394.0,45.7,1675.0,113.8,2564.2,174.6,396.6,1687.6,2576.3,200.1,76,28.6
0.126000,394.1,45.0,1671.7,111.9,2569.3,160.4,396.8,1684,2580.4,199.9,76.1,28.3
0.128000,394.2,44.4,1670.4,111.2,2573.8,140.1,396.8,1681.8,2584,199.7,76.2,27.9
0.130000,394.4,43.6,1670.9,112.0,2577.1,121.1,396.7,1681.2,2587.1,199.5,76.3,27.5
0.132000,394.5,42.6,1674.4,112.9,2579.7,110.5,396.4,1682.3,2589.4,199.3,76.3,27.1
0.134000,394.6,41.4,1681.0,112.4,2581.9,108.4,396.1,1685,2590.7,199,76.4,26.8
0.136000,394.6,40.5,1691.0,111.0,2583.3,112.2,395.5,1689.6,2591.1,198.8,76.5,26.5
0.138000,394.8,39.8,1703.2,109.4,2583.1,118.4,394.9,1696,2590.2,198.5,76.6,26.4
0.140000,394.8,39.3,1716.4,106.8,2581.6,123.6,394.1,1704.2,2588.1,198.2,76.7,26.3
0.142000,394.6,38.8,1730.7,102.0,2579.2,126.5,393.3,1714.1,2584.8,198,76.8,26.2
0.144000,394.2,37.9,1743.4,96.3,2577.0,128.2,392.3,1725.5,2580.3,197.7,76.8,26
0.146000,393.3,36.5,1755.2,90.7,2574.7,130.8,391.3,1738.3,2574.5,197.4,76.9,25.8
0.148000,392.2,34.8,1765.5,85.6,2571.8,132.8,390.2,1752.4,2567.7,197.1,76.9,25.6
0.150000,391.2,33.7,1774.5,80.3,2568.4,130.7,389,1767.3,2559.9,196.7,76.9,25.3
0.152000,390.3,33.2,1783.5,75.3,2565.4,125.4,387.9,1782.9,2551.4,196.4,76.9,25
0.154000,389.5,33.2,1792.6,72.7,2563.2,123.3,386.8,1798.8,2542.4,196.1,76.8,24.4
0.156000,388.5,33.6,1801.7,73.4,2560.3,127.8,385.7,1814.6,2533.1,195.8,76.6,23.5
0.158000,387.5,34.2,1812.0,77.3,2553.7,137.3,384.6,1830.1,2523.8,195.4,76.3,22.2
0.160000,386.8,35.4,1823.3,83.2,2542.6,145.6,383.7,1844.7,2514.8,195.1,75.9,20.8
0.162000,386.2,37.4,1838.1,91.0,2526.8,151.1,382.8,1858.3,2506.3,194.8,75.4,19.2
0.164000,386.1,40.5,1856.3,101.7,2508.9,158.3,382,1870.4,2498.6,194.4,74.7,17.4
0.166000,385.9,45.0,1874.9,115.1,2491.5,173.1,381.3,1880.7,2491.9,194.1,73.8,15.6
0.168000,385.0,52.3,1892.7,126.7,2474.1,198.3,380.8,1889.1,2486.5,193.8,72.8,13.3
0.170000,381.8,64.2,1905.6,124.3,2457.8,229.4,380.4,1895.2,2482.5,193.4,71.7,10.7
0.172000,373.7,82.2,1913.6,110.1,2444.2,263.1,380.2,1898.9,2480,193.1,70.6,8.4
0.174000,356.8,107.0,1921.6,96.0,2444.4,312.0,380.1,1900.2,2479.2,192.8,69.5,6.8
