time,f1,b1,f2,b2,f3,b3,f1p,f2p,f3p,f0,intensity,harmonicity
0.025000,761.2,678.8,1860.5,99.7,3705.0,133.3,750.2,1902,3743.3,170.8,74.7,13
0.027000,762.7,624.1,1883.9,100.3,3704.1,141.5,749.5,1904.9,3735.1,170.8,74.9,13.3
0.029000,756.2,539.0,1904.6,96.2,3704.5,154.8,748.6,1909.8,3721.7,170.8,75.1,13.7
0.031000,746.5,452.6,1919.8,90.0,3658.3,2227.3,747.3,1916.5,3703.4,170.8,75.3,14
0.033000,738.2,385.6,1930.7,84.5,3648.2,1726.8,745.7,1924.8,3680.5,170.8,75.4,14.4
0.035000,732.9,341.2,1940.5,81.4,3658.7,1375.5,744.1,1934.7,3653.5,170.8,75.5,14.8
0.037000,730.6,313.5,1951.5,81.1,3662.8,1133.9,742.4,1946,3622.9,170.8,75.5,15.2
0.039000,730.7,296.0,1965.2,83.0,3648.1,951.1,740.7,1958.4,3589.5,170.8,75.6,15.6
0.041000,732.2,282.6,1982.0,84.9,3602.8,790.0,739.3,1971.8,3553.8,170.8,75.6,16.1
0.043000,734.2,269.8,1999.9,84.9,3541.2,708.2,738.2,1985.9,3516.5,170.8,75.7,16.5
0.045000,736.2,258.5,2017.2,83.8,3494.5,676.1,737.6,2000.5,3478.4,170.8,75.7,16.9
0.047000,738.3,250.7,2033.0,83.3,3458.0,666.8,737.4,2015.5,3440.1,170.8,75.7,17.3
0.049000,740.7,247.9,2046.5,84.6,3426.2,678.6,737.9,2030.5,3402.3,170.8,75.6,17.6
0.051000,743.6,250.5,2058.4,89.0,3391.4,713.8,739,2045.5,3365.5,170.8,75.6,17.9
0.053000,746.7,256.1,2069.4,95.5,3348.6,760.5,740.7,2060.2,3330.5,170.8,75.5,18.2
0.055000,749.5,259.3,2079.0,101.1,3298.3,792.1,743.2,2074.5,3297.6,170.7,75.4,18.5
0.057000,751.9,258.7,2087.0,104.3,3246.4,789.0,746.4,2088.2,3267.3,170.7,75.4,19
0.059000,754.1,257.7,2094.0,105.5,3204.5,760.0,750.2,2101.3,3239.8,170.7,75.3,19.6
0.061000,756.7,259.5,2101.1,106.6,3180.8,731.9,754.6,2113.7,3215.5,170.6,75.2,20.2
0.063000,760.0,267.0,2109.8,109.8,3173.3,713.8,759.5,2125.4,3194.4,170.5,75.2,20.7
0.065000,764.4,279.2,2120.6,115.5,3170.7,690.8,764.8,2136.3,3176.7,170.5,75.2,20.9
0.067000,770.0,291.7,2133.2,122.6,3161.9,653.2,770.4,2146.4,3162.2,170.4,75.3,20.8
0.069000,776.2,302.4,2146.3,129.8,3146.2,613.4,776.2,2155.8,3150.9,170.3,75.4,20.6
0.071000,781.7,307.8,2157.3,135.3,3124.1,586.2,782.1,2164.5,3142.6,170.2,75.5,20.3
0.073000,786.6,310.1,2165.9,138.7,3104.2,568.6,787.8,2172.5,3137,170.1,75.6,19.6
0.075000,792.7,320.3,2175.1,143.0,3103.4,561.0,793.4,2180,3133.9,170,75.7,18.6
0.077000,799.1,335.8,2184.7,148.0,3120.2,559.3,798.8,2187,3133,169.9,75.8,16.9
0.079000,804.6,349.5,2193.4,152.8,3146.4,554.2,803.8,2193.5,3133.8,169.8,75.9,14.4
0.081000,808.9,360.2,2201.7,158.2,3170.5,545.1,808.3,2199.6,3136.2,169.7,76,11.8
0.083000,811.8,367.8,2210.0,163.7,3181.6,536.9,812.5,2205.4,3139.6,169.6,76.1,9.9
0.085000,812.8,372.2,2217.5,168.6,3176.4,529.2,816.1,2210.9,3143.8,169.4,76.2,9.2
0.087000,813.0,374.5,2223.2,172.8,3161.4,517.4,819.3,2216.2,3148.5,169.3,76.2,10.2
0.089000,814.0,377.8,2227.1,176.1,3148.4,502.0,822.1,2221.2,3153.4,169.2,76.3,12.6
0.091000,816.6,386.4,2230.6,179.3,3144.1,489.0,824.5,2226,3158.2,169.1,76.3,15.5
0.093000,820.7,401.2,2234.8,183.7,3147.4,480.9,826.6,2230.4,3162.9,168.9,76.4,18.3
0.095000,825.4,417.7,2238.8,187.7,3155.8,476.5,828.5,2234.6,3167.1,168.8,76.4,20.2
0.097000,829.6,432.1,2242.6,190.6,3167.4,474.6,830.2,2238.4,3170.9,168.7,76.5,21.1
0.099000,833.7,443.6,2246.8,193.7,3180.0,474.4,832,2241.7,3174.2,168.6,76.5,21.4
0.101000,838.0,450.2,2250.8,196.6,3191.0,473.0,833.8,2244.6,3176.9,168.5,76.6,21.4
0.103000,842.1,451.7,2253.4,198.7,3199.0,468.4,835.8,2246.8,3179,168.4,76.6,21.2
0.105000,846.0,449.7,2254.1,200.2,3202.4,460.1,838,2248.4,3180.6,168.3,76.7,21
0.107000,849.3,443.4,2252.5,199.3,3198.4,448.1,840.6,2249.2,3181.8,168.2,76.8,20.7
0.109000,851.2,432.1,2248.5,195.1,3186.3,431.8,843.5,2249.2,3182.6,168.1,76.9,20.2
0.111000,852.7,418.7,2243.2,188.8,3171.0,412.3,846.8,2248.2,3183.1,168,77,19.6
0.113000,854.8,407.3,2237.8,182.4,3160.4,394.0,850.5,2246.2,3183.4,167.9,77.1,19.1
0.115000,857.6,400.0,2232.9,177.3,3157.6,380.7,854.6,2243.1,3183.6,167.9,77.1,18.9
0.117000,861.0,396.1,2228.5,174.2,3161.0,371.4,859,2239,3183.7,167.8,77.2,19.2
0.119000,864.7,393.5,2224.5,172.9,3168.3,363.3,863.5,2233.8,3183.8,167.8,77.2,19.8
0.121000,868.0,391.5,2220.0,173.6,3178.0,353.8,868.2,2227.5,3184,167.7,77.3,20.5
0.123000,871.3,390.1,2214.7,177.3,3187.6,342.6,872.9,2220.1,3184.3,167.7,77.3,21.1
0.125000,874.4,389.0,2208.5,183.6,3193.9,331.8,877.5,2211.7,3184.6,167.7,77.3,21.1
0.127000,877.0,387.9,2201.1,192.4,3195.8,324.2,881.8,2202.3,3184.9,167.6,77.2,20.4
0.129000,879.6,387.4,2193.1,204.2,3194.4,319.6,885.6,2192,3185.3,167.6,77.2,19.3
0.131000,882.2,386.2,2185.2,216.6,3192.5,315.4,888.8,2181,3185.6,167.6,77.2,17.9
0.133000,883.9,382.2,2176.6,225.9,3191.8,310.2,891.3,2169.2,3185.8,167.6,77.1,16.7
0.135000,884.8,376.1,2166.3,231.9,3190.7,303.7,893,2156.9,3185.8,167.6,77.1,16
0.137000,885.4,370.4,2153.7,235.4,3187.5,295.5,893.6,2144.2,3185.7,167.6,77.1,15.8
0.139000,885.4,367.2,2137.8,235.6,3181.4,284.8,893.3,2131.1,3185.2,167.5,77,15.9
0.141000,885.3,366.9,2119.3,232.3,3174.3,272.6,891.9,2118,3184.5,167.5,77,16.2
0.143000,884.6,367.6,2101.3,226.4,3169.2,261.0,889.4,2104.8,3183.3,167.5,76.9,16.6
0.145000,882.8,367.3,2085.4,219.4,3167.6,252.3,885.9,2091.7,3181.7,167.5,76.8,17
0.147000,880.3,366.5,2071.2,212.6,3169.0,246.8,881.3,2078.9,3179.8,167.5,76.7,17.5
0.149000,877.6,366.1,2059.0,206.4,3171.8,243.0,875.9,2066.5,3177.4,167.6,76.6,18.1
0.151000,874.6,366.7,2048.9,201.4,3175.4,239.8,869.7,2054.6,3174.7,167.6,76.5,18.7
0.153000,871.6,370.2,2040.4,198.8,3179.4,236.5,862.9,2043.3,3171.7,167.6,76.3,19.1
0.155000,868.8,376.7,2033.8,199.7,3183.1,232.2,855.7,2032.8,3168.4,167.6,76.1,19.3
0.157000,865.7,385.5,2029.9,205.2,3185.7,226.8,848.2,2023,3165,167.6,75.8,19.1
0.159000,862.3,397.1,2027.8,215.5,3186.7,221.4,840.8,2014,3161.6,167.6,75.5,18.7
0.161000,858.0,411.9,2025.0,228.0,3185.5,216.5,833.5,2006,3158.2,167.6,75.2,18.1
0.163000,851.3,429.5,2018.3,239.5,3180.9,213.0,826.8,1999,3155,167.6,74.9,17.3
0.165000,841.6,449.5,2007.1,248.5,3172.3,211.3,820.6,1993,3152.1,167.6,74.5,16.3
0.167000,829.4,472.9,1993.6,255.5,3160.8,212.2,815.3,1988,3149.5,167.6,74,15.1
0.169000,814.2,504.4,1980.6,263.5,3148.2,218.8,811,1984.1,3147.5,167.6,73.5,13.5
0.171000,795.9,552.3,1969.3,276.8,3133.4,236.5,807.8,1981.3,3145.9,167.5,73,11.8
0.173000,773.2,619.0,1960.4,295.4,3112.8,265.9,805.8,1979.7,3145,167.5,72.4,10.3
0.175000,738.1,702.2,1955.1,316.4,3081.1,301.1,805.2,1979.1,3144.6,167.5,71.7,9.1
