time,f1,b1,f2,b2,f3,b3,f1p,f2p,f3p,f0,intensity,harmonicity
0.025000,776.3,211.1,1881.0,249.9,2911.0,115.2,769.7,1882.8,2912.1,195.4,67.4,2.7
0.027000,774.8,188.0,1887.4,198.2,2907.6,105.6,768.4,1881.7,2910.9,195.1,68.1,3.3
0.029000,771.4,181.8,1887.8,171.2,2905.2,109.7,766.3,1879.8,2908.8,194.8,68.7,3.9
0.031000,765.9,182.8,1885.5,167.3,2904.0,121.7,763.5,1877.1,2906,194.5,69.3,4.5
0.033000,760.0,185.2,1882.0,183.0,2903.2,135.9,759.8,1873.8,2902.4,194.2,69.8,5.2
0.035000,754.9,188.1,1876.4,206.3,2900.2,146.5,755.5,1869.8,2898.1,193.9,70.2,6
0.037000,750.1,193.1,1868.1,219.7,2894.0,149.9,750.5,1865.1,2893.3,193.6,70.6,7.2
0.039000,744.9,200.5,1857.6,214.7,2887.0,147.9,744.8,1859.9,2887.9,193.2,71,8.5
0.041000,738.6,209.6,1846.4,198.6,2881.4,144.5,738.6,1854.2,2882,192.9,71.4,9.9
0.043000,730.6,219.1,1835.7,180.7,2877.6,142.0,732,1848,2875.8,192.5,71.7,11.3
0.045000,721.0,226.1,1826.3,163.7,2872.7,140.2,724.9,1841.5,2869.2,192.2,72,12.4
0.047000,711.3,229.3,1818.8,147.3,2863.5,138.1,717.6,1834.6,2862.6,191.8,72.3,13.2
0.049000,703.1,230.8,1813.8,133.0,2852.0,135.2,709.9,1827.4,2855.8,191.5,72.6,13.9
0.051000,695.7,231.2,1810.3,121.4,2841.6,130.9,702.1,1820,2849,191.2,72.8,14.5
0.053000,688.3,229.4,1807.7,114.8,2836.3,127.6,694.2,1812.5,2842.3,190.8,73,15
0.055000,680.7,224.8,1805.1,112.1,2834.7,126.6,686.2,1804.8,2835.8,190.5,73.2,15.4
0.057000,673.5,219.0,1802.0,110.6,2833.7,126.5,678.3,1797.2,2829.6,190.2,73.4,15.7
0.059000,667.5,213.7,1798.4,108.8,2830.9,124.9,670.5,1789.5,2823.7,189.9,73.6,16
0.061000,662.0,208.3,1794.0,107.4,2826.6,121.3,662.8,1781.8,2818.2,189.6,73.7,16.1
0.063000,655.9,199.8,1788.2,107.8,2821.9,117.3,655.3,1774.3,2813.2,189.3,73.9,16.2
0.065000,649.4,188.3,1780.9,110.0,2816.9,114.3,648.1,1766.8,2808.6,189.1,74,16.1
0.067000,643.6,176.9,1772.6,112.0,2811.2,111.3,641.1,1759.5,2804.6,188.8,74.2,15.9
0.069000,638.8,167.7,1764.4,113.5,2805.3,108.2,634.4,1752.3,2801,188.6,74.3,15.5
0.071000,633.5,159.1,1754.6,114.9,2799.5,106.4,628.1,1745.2,2798.1,188.4,74.4,15
0.073000,627.6,150.0,1743.0,115.4,2795.0,107.4,622.1,1738.2,2795.6,188.2,74.5,14.8
0.075000,621.4,140.6,1730.4,113.5,2791.7,110.3,616.5,1731.4,2793.7,188,74.6,15.1
0.077000,615.7,132.0,1718.3,109.0,2789.2,112.7,611.2,1724.6,2792.3,187.8,74.7,16.2
0.079000,610.5,124.6,1707.6,102.6,2787.3,112.5,606.2,1717.9,2791.3,187.7,74.8,17.9
0.081000,605.6,118.1,1697.9,95.1,2785.7,109.9,601.5,1711.3,2790.8,187.5,74.9,19.7
0.083000,600.8,111.7,1689.1,86.6,2784.8,105.7,597.2,1704.7,2790.6,187.4,75,21.3
0.085000,595.8,104.9,1681.0,77.4,2784.5,101.3,593.1,1698.1,2790.7,187.3,75.1,22.2
0.087000,590.8,97.9,1674.2,68.9,2784.8,98.3,589.2,1691.4,2791,187.2,75.2,22.1
0.089000,585.8,90.6,1668.5,60.9,2785.4,96.7,585.5,1684.7,2791.5,187.1,75.3,21.5
0.091000,581.1,84.3,1664.8,54.4,2786.6,95.5,582,1677.8,2792.2,187,75.4,20.5
0.093000,576.9,79.3,1662.6,49.3,2788.1,94.0,578.7,1670.8,2792.8,187,75.4,19.5
0.095000,573.0,75.1,1661.5,45.5,2790.0,93.0,575.4,1663.6,2793.4,186.9,75.5,18.6
0.097000,569.0,70.9,1660.3,43.2,2792.0,94.4,572.3,1656.2,2794,186.8,75.5,17.9
0.099000,565.2,67.1,1658.4,42.6,2793.4,99.2,569.2,1648.6,2794.4,186.8,75.4,17.1
0.101000,561.7,64.2,1655.4,44.0,2794.0,106.9,566,1640.8,2794.5,186.7,75.4,16.4
0.103000,558.6,62.6,1651.4,47.8,2794.1,116.6,562.9,1632.7,2794.5,186.7,75.3,15.8
0.105000,555.9,62.5,1646.3,54.4,2794.5,128.1,559.8,1624.4,2794.1,186.7,75.1,15.3
0.107000,553.4,63.5,1640.6,64.2,2796.0,141.3,556.6,1615.9,2793.5,186.6,74.9,14.9
0.109000,550.7,65.3,1632.5,78.3,2798.2,158.1,553.4,1607.2,2792.5,186.6,74.7,14.7
0.111000,548.1,67.7,1620.4,94.0,2799.4,175.2,550.1,1598.3,2791.2,186.6,74.5,14.5
0.113000,545.5,70.2,1603.3,105.7,2797.9,189.6,546.8,1589.3,2789.5,186.6,74.3,14.5
0.115000,542.6,73.0,1584.0,110.5,2794.5,201.9,543.4,1580.2,2787.5,186.5,74.1,14.7
0.117000,539.6,76.3,1566.0,110.8,2791.0,215.0,539.9,1571,2785.2,186.5,73.9,15
0.119000,536.4,80.9,1550.1,109.3,2787.8,228.3,536.5,1561.8,2782.5,186.5,73.7,15.5
0.121000,533.3,86.4,1536.7,106.8,2785.3,236.4,533,1552.7,2779.7,186.5,73.5,16.1
0.123000,530.3,92.7,1525.6,103.4,2782.9,236.7,529.5,1543.7,2776.5,186.5,73.4,16.8
0.125000,527.4,98.9,1516.2,99.3,2779.8,234.5,526,1534.9,2773.3,186.4,73.2,17.5
0.127000,524.6,104.3,1508.4,95.2,2775.5,236.7,522.5,1526.3,2769.8,186.4,73.1,18.3
0.129000,521.6,109.3,1501.2,91.2,2769.4,246.1,519.1,1518.1,2766.4,186.4,73,19.2
0.131000,518.5,113.6,1495.0,87.7,2761.5,258.2,515.8,1510.2,2762.8,186.4,72.9,20
0.133000,515.4,117.4,1490.0,84.7,2752.5,264.9,512.6,1502.9,2759.4,186.4,72.9,20.9
0.135000,512.5,120.8,1485.9,82.1,2744.8,263.6,509.5,1496,2756,186.3,72.8,21.7
0.137000,509.5,124.2,1482.9,79.7,2740.5,258.7,506.5,1489.8,2752.7,186.3,72.8,22.4
0.139000,506.4,127.5,1480.9,77.6,2739.0,255.6,503.7,1484.2,2749.7,186.3,72.8,23.1
0.141000,503.3,130.7,1479.5,75.9,2738.4,254.9,501,1479.3,2746.9,186.3,72.8,23.7
0.143000,500.1,133.0,1478.6,74.4,2736.9,252.6,498.5,1475.2,2744.3,186.3,72.7,24.3
0.145000,497.2,134.5,1478.2,73.3,2735.1,246.3,496.1,1471.8,2742.1,186.2,72.7,24.8
0.147000,494.6,135.7,1478.1,72.5,2734.1,236.2,493.9,1469.3,2740.2,186.2,72.7,25.3
0.149000,492.6,136.6,1478.5,71.8,2734.8,225.9,491.9,1467.6,2738.7,186.2,72.7,25.8
0.151000,490.7,137.2,1479.2,71.4,2736.4,218.3,489.9,1466.7,2737.5,186.2,72.7,26.2
0.153000,488.5,137.2,1480.0,71.1,2737.7,214.0,488.1,1466.7,2736.8,186.2,72.8,26.6
0.155000,486.0,136.9,1480.9,71.0,2738.6,211.2,486.4,1467.5,2736.4,186.1,72.8,26.7
0.157000,483.4,137.0,1482.2,71.0,2740.1,207.0,484.8,1469.2,2736.4,186.1,72.8,26.7
0.159000,481.1,137.5,1484.1,70.8,2742.1,200.0,483.2,1471.7,2736.8,186.1,72.8,26.6
0.161000,479.0,138.1,1486.2,70.1,2743.5,191.8,481.7,1474.9,2737.5,186.1,72.8,26.3
0.163000,477.4,138.5,1488.2,69.7,2743.7,184.4,480.1,1478.9,2738.5,186,72.8,26
0.165000,476.2,138.5,1489.9,69.9,2744.0,178.2,478.5,1483.5,2739.8,186,72.8,25.7
0.167000,474.9,138.6,1491.8,70.8,2745.5,172.2,476.8,1488.8,2741.4,185.9,72.8,25.4
0.169000,473.3,138.9,1494.2,72.0,2748.1,165.5,475.1,1494.6,2743.1,185.9,72.8,25.1
0.171000,471.1,139.7,1497.2,73.3,2750.9,158.0,473.2,1501,2745.1,185.9,72.8,24.8
0.173000,468.5,141.0,1500.7,75.5,2753.2,152.0,471.2,1507.8,2747.1,185.8,72.8,24.4
0.175000,465.9,142.5,1504.9,79.2,2754.9,149.3,469.1,1515,2749.3,185.7,72.8,24.1
0.177000,463.4,144.1,1510.0,84.7,2756.3,149.5,466.7,1522.5,2751.5,185.7,72.8,23.8
0.179000,461.1,145.4,1515.9,91.7,2756.8,149.5,464.2,1530.2,2753.7,185.6,72.8,23.4
0.181000,458.8,145.6,1522.5,99.7,2756.1,146.4,461.5,1538,2755.8,185.5,72.8,23.1
0.183000,456.7,144.8,1529.5,108.3,2755.2,140.1,458.6,1546,2757.9,185.5,72.8,22.9
0.185000,454.6,143.7,1538.2,117.5,2755.4,131.4,455.4,1554,2759.9,185.4,72.8,22.8
0.187000,452.5,142.7,1548.8,124.7,2757.0,122.3,452.2,1562,2761.8,185.3,72.8,23
0.189000,450.2,141.7,1560.5,128.4,2759.3,114.3,448.7,1569.8,2763.6,185.2,72.8,23.4
0.191000,447.7,140.1,1572.3,128.4,2761.3,107.4,445.1,1577.5,2765.2,185.1,72.8,23.8
0.193000,444.9,137.7,1584.6,125.7,2763.2,101.1,441.4,1585,2766.6,184.9,72.8,24.2
0.195000,441.9,135.0,1597.6,120.6,2765.1,95.2,437.6,1592.3,2767.9,184.8,72.8,24.2
0.197000,438.7,132.0,1610.6,112.8,2767.1,89.4,433.8,1599.2,2768.9,184.7,72.9,24
0.199000,435.3,128.6,1621.8,103.3,2768.9,84.1,429.9,1605.8,2769.9,184.6,72.9,23.4
0.201000,431.7,124.6,1629.6,93.1,2769.8,79.7,426.1,1612,2770.6,184.4,72.8,22.8
0.203000,428.2,120.0,1634.1,83.2,2769.5,76.8,422.4,1617.8,2771.2,184.3,72.8,22.1
0.205000,424.5,115.2,1637.2,73.3,2768.1,75.3,418.8,1623.2,2771.7,184.2,72.8,21.5
0.207000,420.6,111.2,1639.9,64.5,2766.1,75.2,415.3,1628.1,2772,184,72.7,21
0.209000,416.5,108.1,1642.4,57.1,2764.5,75.9,412.1,1632.6,2772.3,183.9,72.6,20.5
0.211000,412.5,106.1,1644.3,51.0,2763.8,76.9,409.2,1636.5,2772.4,183.7,72.5,20
0.213000,408.3,104.3,1645.0,46.0,2763.9,78.5,406.5,1640,2772.5,183.6,72.3,19.5
0.215000,404.1,102.3,1644.4,41.8,2764.7,82.0,404.2,1642.9,2772.6,183.5,72.1,18.8
0.217000,399.8,100.8,1642.9,38.6,2767.0,88.5,402.3,1645.3,2772.6,183.3,71.8,17.9
0.219000,395.9,100.0,1640.8,36.5,2771.9,98.5,400.7,1647.2,2772.6,183.2,71.4,16.8
0.221000,392.4,100.6,1638.0,35.7,2780.0,113.0,399.6,1648.5,2772.5,183.1,71,15.7
0.223000,390.0,103.6,1634.7,36.4,2789.7,130.7,398.9,1649.3,2772.5,182.9,70.5,14.6
0.225000,388.8,110.1,1630.9,38.7,2799.3,149.1,398.7,1649.6,2772.5,182.8,69.8,13.7
