time,f1,b1,f2,b2,f3,b3,f1p,f2p,f3p,f0,intensity,harmonicity
0.025000,733.4,143.3,2185.1,125.1,3038.0,250.1,764.6,2180.1,3082,166.2,73.1,10
0.027000,741.5,146.8,2185.2,124.1,3057.4,256.5,765.2,2180.3,3082,166.2,73.2,11.5
0.029000,750.2,151.9,2184.4,125.1,3071.3,259.4,766.2,2180.6,3082.1,166.1,73.2,13.1
0.031000,757.7,153.5,2182.9,127.2,3080.1,265.7,767.6,2181,3082.2,166,73.2,14.7
0.033000,763.7,150.3,2180.3,131.7,3086.7,283.0,769.4,2181.5,3082.3,166,73.2,16.2
0.035000,768.9,144.6,2177.0,137.7,3093.0,308.9,771.5,2182,3082.3,165.9,73.2,17.4
0.037000,774.1,140.9,2175.2,140.3,3096.3,318.4,774,2182.6,3082.3,165.9,73.2,18.3
0.039000,780.2,141.4,2176.4,138.9,3095.5,302.1,776.8,2183.2,3082.1,165.8,73.2,18.9
0.041000,787.4,143.7,2179.1,136.1,3093.7,277.4,779.9,2183.9,3081.8,165.8,73.2,19.4
0.043000,794.1,144.5,2181.6,133.0,3092.5,259.6,783.3,2184.5,3081.4,165.7,73.3,19.7
0.045000,800.6,144.5,2183.7,130.1,3091.9,248.4,787,2185.1,3080.7,165.7,73.4,19.8
0.047000,806.6,144.0,2185.3,127.5,3091.1,240.1,790.9,2185.7,3079.8,165.6,73.4,19.6
0.049000,811.3,142.0,2186.5,125.1,3088.8,230.8,794.9,2186.2,3078.6,165.6,73.6,19.1
0.051000,814.7,139.6,2187.4,123.8,3085.1,220.1,799.1,2186.6,3077.1,165.5,73.7,18.5
0.053000,817.9,137.1,2188.4,123.0,3080.7,209.8,803.5,2186.8,3075.3,165.5,73.8,18
0.055000,821.0,133.6,2189.6,121.5,3076.2,201.7,807.9,2186.9,3073.1,165.4,73.9,17.8
0.057000,824.0,130.2,2190.5,119.8,3071.9,197.3,812.5,2186.9,3070.6,165.4,74,18.1
0.059000,827.1,127.1,2191.1,118.3,3067.5,195.7,817,2186.6,3067.7,165.4,74.2,18.6
0.061000,830.1,123.7,2191.0,116.5,3063.3,195.7,821.6,2186.2,3064.4,165.3,74.3,19.3
0.063000,832.6,120.8,2190.3,115.0,3059.4,197.8,826.1,2185.6,3060.8,165.3,74.4,19.9
0.065000,835.2,118.7,2189.1,114.5,3055.3,201.8,830.6,2184.8,3056.8,165.3,74.5,20.3
0.067000,837.7,116.6,2187.1,114.6,3050.4,206.4,835,2183.8,3052.5,165.3,74.6,20.4
0.069000,840.0,115.3,2184.3,115.2,3045.3,210.7,839.4,2182.6,3047.8,165.2,74.7,20.2
0.071000,842.4,115.1,2181.1,115.9,3039.7,213.9,843.6,2181.1,3042.9,165.2,74.8,20
0.073000,844.5,115.5,2178.0,115.5,3033.5,215.0,847.7,2179.5,3037.8,165.2,74.8,19.9
0.075000,846.3,117.1,2175.1,114.6,3027.1,215.0,851.7,2177.7,3032.5,165.2,74.8,20
0.077000,848.1,120.4,2172.3,114.1,3020.5,215.7,855.6,2175.6,3027,165.2,74.9,20.4
0.079000,850.4,123.8,2169.6,113.8,3013.9,217.2,859.3,2173.4,3021.4,165.2,74.9,21
0.081000,853.0,126.9,2166.9,113.8,3007.7,220.2,862.9,2171,3015.8,165.2,74.9,21.7
0.083000,856.1,130.0,2164.2,114.0,3001.5,224.0,866.4,2168.5,3010.2,165.2,74.9,22.3
0.085000,859.2,132.7,2162.1,113.6,2996.2,226.4,869.8,2165.8,3004.6,165.2,74.9,22.7
0.087000,862.6,135.4,2160.6,112.7,2991.7,227.1,873,2162.9,2999.1,165.2,74.9,22.9
0.089000,866.1,138.7,2159.1,112.1,2988.5,227.0,876.2,2160,2993.7,165.2,75,22.9
0.091000,869.5,141.3,2156.8,111.6,2986.5,227.8,879.3,2156.8,2988.5,165.2,75,22.8
0.093000,872.6,143.2,2153.3,111.9,2985.4,231.8,882.4,2153.6,2983.4,165.2,75,22.6
0.095000,875.7,145.7,2149.3,113.3,2984.4,237.4,885.5,2150.2,2978.6,165.2,75,22.2
0.097000,879.3,149.5,2145.5,114.9,2982.4,240.7,888.6,2146.7,2974,165.3,75,21.4
0.099000,883.7,155.9,2141.9,116.8,2978.8,240.2,891.7,2143.1,2969.6,165.3,75,20.3
0.101000,888.8,165.2,2138.6,119.6,2974.2,238.7,894.8,2139.4,2965.5,165.3,74.9,19.1
0.103000,894.1,174.6,2135.4,123.2,2968.8,239.8,898.1,2135.5,2961.6,165.3,74.9,18.1
0.105000,899.3,182.0,2132.1,128.2,2962.6,246.7,901.4,2131.5,2957.9,165.3,74.9,17.8
0.107000,904.5,187.9,2128.7,134.5,2956.9,258.1,904.9,2127.4,2954.4,165.4,74.9,18.3
0.109000,910.2,192.9,2125.3,140.5,2952.8,268.8,908.5,2123,2951,165.4,74.8,19.3
0.111000,917.0,198.5,2121.9,146.4,2950.8,276.4,912.3,2118.5,2947.9,165.4,74.8,20.6
0.113000,924.7,205.8,2118.6,152.3,2949.5,281.7,916.3,2113.9,2944.8,165.4,74.8,21.9
0.115000,932.6,213.1,2114.6,157.8,2946.2,285.9,920.4,2109,2941.8,165.5,74.8,22.7
0.117000,940.2,219.7,2109.1,162.9,2939.9,290.0,924.7,2103.9,2938.8,165.5,74.8,23.2
0.119000,946.9,225.6,2102.7,167.6,2932.7,294.7,929.1,2098.6,2935.9,165.5,74.8,23.6
0.121000,951.8,229.9,2095.9,171.5,2927.7,299.1,933.7,2093.1,2932.9,165.5,74.8,23.7
0.123000,955.2,233.2,2089.3,175.1,2926.1,302.0,938.5,2087.3,2929.9,165.6,74.8,23.6
0.125000,958.6,237.6,2082.4,179.4,2926.5,302.9,943.3,2081.2,2926.8,165.6,74.8,23
0.127000,962.1,241.7,2076.0,182.8,2926.0,300.8,948.2,2074.9,2923.5,165.6,74.8,21.6
0.129000,965.6,244.8,2069.3,185.4,2923.3,297.1,953.1,2068.4,2920.2,165.6,74.8,19.4
0.131000,969.2,247.6,2061.6,188.4,2918.2,293.5,958,2061.6,2916.7,165.7,74.8,17.2
0.133000,970.9,247.9,2053.1,190.8,2911.9,290.1,962.8,2054.5,2913.1,165.7,74.9,15.2
0.135000,970.1,244.8,2043.4,192.4,2904.8,287.0,967.5,2047.2,2909.3,165.7,74.9,14.2
0.137000,968.7,240.5,2032.9,193.9,2898.0,284.8,972,2039.7,2905.5,165.7,74.9,14.5
0.139000,968.7,237.5,2023.5,194.4,2893.3,282.9,976.3,2032,2901.5,165.7,74.9,15.6
0.141000,970.6,237.3,2015.1,193.9,2890.5,281.6,980.2,2024.1,2897.5,165.7,75,17.1
0.143000,973.8,240.2,2006.8,193.2,2888.2,282.0,983.7,2016,2893.5,165.7,75,18.5
0.145000,976.4,243.2,1999.3,191.8,2885.7,282.9,986.8,2007.9,2889.6,165.7,75,19.5
0.147000,977.8,245.2,1992.8,189.8,2883.1,283.0,989.4,1999.6,2885.7,165.7,75,19.9
0.149000,978.6,247.4,1986.9,187.9,2880.6,281.8,991.4,1991.3,2882,165.7,75.1,20
0.151000,978.8,248.2,1981.7,185.7,2878.6,278.9,992.7,1983,2878.4,165.6,75.1,19.9
0.153000,977.9,247.0,1977.0,183.9,2876.8,275.0,993.4,1974.7,2875.2,165.6,75.1,19.9
0.155000,977.0,245.0,1972.0,183.4,2875.2,272.2,993.3,1966.5,2872.3,165.6,75.1,20
0.157000,976.9,242.6,1967.0,184.1,2874.5,271.9,992.4,1958.4,2869.8,165.5,75.1,20.2
0.159000,977.4,240.9,1961.1,186.7,2874.7,275.6,990.7,1950.5,2867.7,165.5,75,20.5
0.161000,978.3,241.7,1954.2,191.4,2874.8,283.3,988.1,1942.7,2866.2,165.4,75,20.8
0.163000,978.4,243.9,1946.0,195.6,2873.8,291.2,984.8,1935.2,2865.2,165.4,74.9,21.1
0.165000,976.2,244.9,1937.5,197.2,2871.5,296.3,980.5,1928,2864.9,165.3,74.8,21.6
0.167000,972.2,244.3,1928.3,197.3,2868.3,300.0,975.5,1921,2865.1,165.3,74.7,22.2
0.169000,966.9,240.8,1918.5,195.8,2865.4,302.4,969.6,1914.4,2866.1,165.2,74.7,23
0.171000,961.5,235.2,1909.2,193.8,2865.1,303.7,962.9,1908.2,2867.7,165.1,74.6,23.8
0.173000,956.2,229.5,1900.4,192.8,2867.4,305.5,955.6,1902.3,2869.9,165,74.5,24.4
0.175000,951.1,223.6,1892.7,191.8,2870.8,308.0,947.5,1896.8,2872.8,164.9,74.5,24.6
0.177000,945.9,218.2,1886.6,190.9,2874.0,310.7,938.9,1891.7,2876.4,164.8,74.4,24.5
0.179000,940.2,213.9,1881.7,190.9,2877.3,313.9,929.7,1887.1,2880.5,164.7,74.3,24.1
0.181000,933.6,208.8,1877.2,190.3,2881.8,316.0,920.2,1882.8,2885.1,164.6,74.2,23.5
0.183000,925.6,201.8,1872.8,188.2,2887.5,317.0,910.3,1879,2890.3,164.5,74.1,22.7
0.185000,916.5,193.7,1868.3,186.0,2894.2,320.2,900.2,1875.5,2895.8,164.4,74,21.8
0.187000,907.1,185.4,1864.6,184.1,2900.3,325.8,890,1872.4,2901.6,164.2,73.9,20.7
0.189000,898.5,178.8,1862.9,183.3,2904.1,331.1,879.8,1869.7,2907.6,164.1,73.7,19.5
0.191000,890.0,174.8,1863.0,184.0,2907.1,335.2,869.7,1867.4,2913.8,164,73.6,18.1
0.193000,881.3,172.0,1863.8,184.4,2912.4,335.0,859.9,1865.3,2920,163.9,73.5,16.8
0.195000,872.4,169.4,1864.3,182.7,2922.5,326.2,850.5,1863.6,2926,163.7,73.4,15.6
0.197000,862.7,168.2,1864.6,179.9,2937.0,309.2,841.5,1862.1,2931.9,163.6,73.3,14.7
0.199000,852.0,167.3,1864.7,176.2,2950.3,288.5,833.2,1860.9,2937.5,163.5,73.1,14
0.201000,839.3,164.4,1864.2,171.7,2958.3,269.5,825.6,1859.8,2942.7,163.4,72.9,13.3
0.203000,825.1,160.8,1863.0,167.9,2960.4,256.8,818.8,1859,2947.5,163.3,72.6,12.6
0.205000,810.2,159.0,1861.2,164.7,2958.7,246.0,812.8,1858.4,2951.6,163.1,72.3,11.6
0.207000,796.2,162.8,1859.6,162.1,2955.3,227.9,807.9,1857.9,2955.1,163,71.7,13.5
0.209000,785.0,178.0,1859.3,163.1,2952.8,200.0,804,1857.5,2957.9,162.9,71.1,18.3
0.211000,775.8,208.9,1860.4,168.4,2951.3,168.8,801.1,1857.2,2959.9,162.8,70.3,21.5
0.213000,765.0,251.1,1859.4,177.9,2951.9,145.4,799.4,1857.1,2961.2,162.7,69.3,18.3
0.215000,745.3,290.9,1852.4,192.3,2955.5,136.6,798.8,1857,2961.6,162.6,68.1,4.2
