time,f1,b1,f2,b2,f3,b3,f1p,f2p,f3p,f0,intensity,harmonicity
0.026000,414.5,332.8,3038.2,198.9,3858.7,173.4,508.6,3093,3827.3,205.6,71.1,5.6
0.028000,441.8,407.5,3045.4,180.0,3857.1,163.2,508.4,3092.1,3827.5,205.2,71,7.5
0.030000,467.2,466.4,3056.8,174.1,3856.7,172.2,508,3090.6,3827.9,204.8,70.9,9.4
0.032000,489.2,503.5,3067.7,169.9,3854.2,187.0,507.5,3088.4,3828.4,204.4,70.7,11.3
0.034000,505.2,513.7,3073.6,165.2,3847.7,199.1,506.9,3085.7,3829.1,203.9,70.6,12.8
0.036000,515.8,498.4,3075.2,163.0,3838.8,206.8,506.1,3082.5,3829.8,203.4,70.6,13.7
0.038000,523.4,473.8,3075.1,164.6,3831.7,207.6,505.2,3078.9,3830.6,202.9,70.6,14.1
0.040000,531.4,459.5,3075.9,167.7,3827.7,199.4,504.1,3074.8,3831.4,202.4,70.6,14.1
0.042000,539.4,458.7,3078.1,170.9,3825.7,186.8,503,3070.5,3832.1,201.9,70.6,13.9
0.044000,546.1,462.9,3081.1,175.1,3824.2,175.2,501.7,3065.9,3832.7,201.3,70.7,13.5
0.046000,549.0,462.6,3082.9,181.6,3822.4,168.6,500.3,3061.1,3833.2,200.7,70.7,13
0.048000,547.2,454.5,3081.7,190.2,3819.5,167.0,498.7,3056.2,3833.5,200.1,70.8,12
0.050000,540.8,439.7,3077.2,199.6,3815.1,168.9,497.1,3051.3,3833.5,199.5,70.8,10.8
0.052000,530.8,421.4,3071.1,207.2,3810.8,174.4,495.4,3046.4,3833.1,198.9,70.8,9.7
0.054000,518.3,401.0,3065.1,213.4,3809.0,184.8,493.7,3041.6,3832.4,198.3,70.8,9
0.056000,505.2,379.7,3059.6,218.8,3810.1,200.6,491.9,3037.1,3831.2,197.7,70.8,8.8
0.058000,492.4,358.6,3054.2,222.5,3813.0,221.9,490,3032.7,3829.5,197,70.9,9.3
0.060000,481.6,341.8,3049.7,221.5,3816.9,243.8,488.1,3028.7,3827.2,196.4,70.9,10.1
0.062000,473.3,332.4,3046.1,212.6,3821.7,257.9,486.2,3025,3824.3,195.8,70.9,11
0.064000,467.1,331.0,3042.7,196.9,3824.7,257.0,484.3,3021.7,3820.7,195.2,71,11.5
0.066000,462.2,335.4,3038.4,178.4,3821.7,242.9,482.5,3018.9,3816.4,194.6,71,11.5
0.068000,458.7,341.9,3033.5,162.8,3811.4,224.1,480.8,3016.4,3811.4,194,71.1,11.1
0.070000,457.2,346.0,3028.1,151.7,3797.2,208.3,479.1,3014.4,3805.6,193.4,71.2,10.3
0.072000,457.5,343.0,3022.6,145.5,3782.8,199.5,477.5,3012.8,3798.9,192.8,71.2,9.5
0.074000,459.4,330.3,3016.7,143.1,3767.9,198.3,476.1,3011.5,3791.5,192.2,71.2,8.9
0.076000,461.9,312.6,3011.2,143.7,3753.3,203.3,474.9,3010.7,3783.1,191.7,71.3,8.5
0.078000,464.3,298.6,3007.1,145.6,3741.4,211.3,473.9,3010.1,3774,191.2,71.3,8
0.080000,466.6,291.7,3005.0,148.0,3733.9,220.1,473.1,3009.9,3763.9,190.7,71.3,7.6
0.082000,469.0,288.5,3003.4,151.8,3727.4,230.7,472.6,3009.8,3753.1,190.2,71.3,7.5
0.084000,471.8,286.0,3001.2,157.8,3719.7,243.2,472.3,3009.9,3741.4,189.7,71.3,7.9
0.086000,474.6,285.1,2998.5,164.2,3713.0,255.3,472.4,3010,3728.9,189.3,71.3,9.2
0.088000,477.2,285.6,2995.8,169.6,3710.4,267.9,472.9,3010,3715.6,188.9,71.3,11.6
0.090000,479.5,286.2,2993.4,173.0,3712.1,281.9,473.7,3009.9,3701.6,188.4,71.3,14.6
0.092000,481.8,286.5,2991.2,174.2,3714.1,295.7,474.9,3009.6,3686.9,188.1,71.3,17.5
0.094000,484.1,286.0,2988.8,173.2,3710.7,305.9,476.6,3008.9,3671.6,187.7,71.2,19.6
0.096000,486.4,282.8,2984.8,171.0,3699.2,313.7,478.6,3007.7,3655.6,187.3,71.2,20.3
0.098000,488.3,276.7,2979.4,168.2,3684.1,322.1,481.2,3006,3639.2,187,71.2,19.8
0.100000,490.0,268.8,2973.4,165.3,3669.2,335.5,484.2,3003.6,3622.3,186.6,71.1,18.6
0.102000,491.9,261.4,2968.4,163.0,3655.2,353.9,487.7,3000.5,3605,186.3,71.1,17.1
0.104000,494.3,257.3,2965.0,161.7,3640.0,374.8,491.6,2996.5,3587.4,186,71.1,15.7
0.106000,497.3,255.8,2962.5,162.6,3621.4,396.4,496,2991.5,3569.5,185.7,71.1,14.9
0.108000,500.6,253.0,2959.8,165.5,3596.5,420.3,500.9,2985.6,3551.5,185.5,71.1,14.1
0.110000,503.9,248.1,2956.8,169.1,3566.6,442.9,506.3,2978.5,3533.3,185.2,71.1,13.5
0.112000,507.9,241.5,2953.6,173.3,3531.7,459.3,512.2,2970.3,3515.1,184.9,71.2,13
0.114000,512.7,234.5,2950.1,178.5,3495.4,465.0,518.4,2960.9,3497,184.7,71.3,12.7
0.116000,518.8,228.8,2946.3,184.8,3461.6,463.9,525.1,2950.3,3478.9,184.4,71.4,12.6
0.118000,525.9,225.8,2943.2,191.6,3434.6,463.7,532.2,2938.4,3461.1,184.2,71.5,12.9
0.120000,534.4,226.6,2941.7,199.2,3414.6,472.9,539.7,2925.3,3443.5,183.9,71.7,13.3
0.122000,543.7,232.0,2942.6,208.5,3401.6,496.6,547.5,2910.9,3426.2,183.7,71.8,13.8
0.124000,552.8,240.5,2943.3,221.4,3391.4,521.9,555.6,2895.3,3409.2,183.4,71.9,14.2
0.126000,561.4,250.1,2938.0,241.5,3375.6,523.6,564,2878.4,3392.7,183.2,72,14.3
0.128000,569.4,257.1,2922.2,268.4,3352.3,490.3,572.6,2860.4,3376.7,183,72.1,14.3
0.130000,578.1,261.0,2897.5,295.7,3327.9,442.8,581.3,2841.3,3361.2,182.7,72.1,14.1
0.132000,588.0,263.4,2869.6,316.9,3307.3,404.0,590.2,2821.1,3346.2,182.5,72.2,13.9
0.134000,599.4,264.8,2838.6,331.1,3289.1,372.6,599.2,2800,3331.9,182.3,72.3,13.7
0.136000,611.0,268.0,2807.2,335.3,3276.1,349.0,608.3,2778,3318.1,182,72.5,13.7
0.138000,622.5,275.9,2777.5,331.1,3269.2,335.2,617.3,2755.2,3305,181.8,72.6,13.8
0.140000,633.3,283.2,2748.8,322.4,3264.6,324.8,626.3,2731.7,3292.6,181.6,72.7,13.9
0.142000,643.8,284.1,2715.8,310.3,3259.4,310.2,635.1,2707.7,3280.9,181.3,72.8,14
0.144000,653.4,277.6,2677.4,292.2,3254.2,290.2,643.9,2683.2,3269.9,181.1,72.9,13.9
0.146000,661.9,266.9,2636.1,263.4,3249.9,267.4,652.4,2658.3,3259.6,180.8,73,13.7
0.148000,669.2,256.3,2598.8,228.1,3246.2,246.2,660.7,2633.2,3249.9,180.6,73.2,13.3
0.150000,676.3,246.2,2566.6,192.1,3242.3,227.9,668.8,2608,3241,180.3,73.4,12.7
0.152000,683.1,235.5,2540.5,161.8,3238.7,214.6,676.5,2582.8,3232.8,180.1,73.6,12.2
0.154000,689.3,223.2,2518.5,138.4,3236.3,206.6,683.9,2557.7,3225.2,179.8,73.9,11.9
0.156000,695.4,208.6,2498.1,119.8,3234.6,202.7,690.9,2532.8,3218.3,179.6,74.1,12.1
0.158000,700.9,194.9,2480.6,107.4,3232.0,201.9,697.5,2508.2,3212.1,179.3,74.3,12.7
0.160000,706.0,184.7,2464.9,101.3,3227.1,202.8,703.7,2484,3206.5,179,74.6,13.6
0.162000,710.6,179.0,2448.7,99.7,3220.6,203.8,709.4,2460.4,3201.4,178.8,74.8,14.5
0.164000,715.0,176.3,2428.8,99.7,3214.1,203.3,714.7,2437.3,3197,178.5,75,15
0.166000,718.5,175.0,2405.9,99.3,3209.7,200.0,719.5,2415,3193.1,178.2,75.2,15
0.168000,721.0,173.1,2382.0,96.8,3208.1,193.2,723.8,2393.3,3189.7,177.9,75.5,14.2
0.170000,722.1,169.3,2360.4,92.0,3208.9,182.9,727.7,2372.4,3186.8,177.7,75.7,13.2
0.172000,722.5,163.6,2340.1,85.6,3210.5,170.1,731,2352.4,3184.4,177.4,76,12.1
0.174000,722.9,157.2,2322.8,78.8,3211.6,158.1,734,2333.2,3182.4,177.1,76.2,11.2
0.176000,723.8,151.6,2308.7,72.6,3210.9,149.6,736.4,2315,3180.7,176.8,76.4,10.8
0.178000,725.3,148.4,2297.5,68.1,3208.3,145.0,738.4,2297.6,3179.5,176.5,76.6,10.8
0.180000,727.1,147.9,2287.3,65.5,3204.7,143.4,739.9,2281.2,3178.6,176.2,76.8,10.9
0.182000,728.9,149.9,2277.8,65.2,3201.1,144.1,741.1,2265.8,3178,176,76.9,11.2
0.184000,730.8,153.6,2268.2,67.1,3197.3,146.6,741.8,2251.2,3177.7,175.7,77,11.5
0.186000,732.8,157.8,2258.3,70.1,3193.1,149.8,742.2,2237.6,3177.7,175.4,77.1,11.8
0.188000,734.7,161.6,2247.4,73.7,3186.9,153.7,742.3,2224.9,3177.8,175.1,77.1,12.2
0.190000,736.5,164.6,2235.6,77.7,3178.9,157.2,742,2213,3178.2,174.8,77.1,12.5
0.192000,738.0,166.9,2224.0,81.9,3171.0,158.8,741.4,2202.1,3178.8,174.6,77.1,13
0.194000,739.1,169.1,2212.1,86.9,3164.0,158.3,740.5,2191.9,3179.5,174.3,77,13.5
0.196000,740.1,171.8,2200.1,93.1,3158.3,156.6,739.5,2182.5,3180.3,174,76.9,14
0.198000,741.1,174.9,2187.7,99.3,3154.2,155.2,738.2,2173.9,3181.2,173.8,76.9,14.6
0.200000,741.8,178.6,2175.5,104.2,3151.8,155.0,736.7,2166,3182.3,173.5,76.8,15.2
0.202000,742.3,184.2,2163.5,108.0,3151.4,156.7,735.1,2158.7,3183.4,173.3,76.7,15.8
0.204000,742.3,189.8,2153.4,110.4,3152.5,159.1,733.4,2152.1,3184.5,173,76.6,16.5
0.206000,741.6,194.1,2145.2,111.8,3154.1,161.6,731.6,2146,3185.7,172.8,76.5,17
0.208000,740.6,197.2,2138.3,112.7,3155.5,164.0,729.7,2140.5,3186.9,172.6,76.4,17.6
0.210000,739.6,199.2,2131.7,112.7,3157.3,166.3,727.8,2135.5,3188.2,172.4,76.4,18.2
0.212000,738.6,200.6,2125.3,111.7,3159.7,169.3,725.9,2131,3189.4,172.1,76.3,18.7
0.214000,737.7,202.0,2119.1,110.0,3163.5,173.1,724,2126.9,3190.6,171.9,76.3,19.1
0.216000,736.5,202.5,2114.1,107.4,3168.8,176.8,722.1,2123.2,3191.8,171.7,76.2,19.5
0.218000,734.7,202.2,2109.8,104.2,3175.8,180.8,720.3,2119.9,3192.9,171.5,76.1,19.9
0.220000,732.4,201.3,2106.6,101.2,3183.6,184.7,718.6,2116.9,3194,171.3,76,20.2
0.222000,729.3,198.9,2104.5,98.7,3191.2,186.3,716.9,2114.3,3195,171.1,75.9,20.4
0.224000,725.4,195.1,2103.3,97.3,3197.7,185.1,715.3,2111.9,3196,171,75.8,20.6
0.226000,721.0,190.4,2102.8,96.9,3203.2,181.3,713.8,2109.8,3196.9,170.8,75.7,20.5
0.228000,716.5,185.1,2102.8,97.5,3207.7,175.2,712.5,2108,3197.7,170.6,75.6,20.3
0.230000,712.0,180.4,2103.1,99.5,3211.7,169.1,711.3,2106.5,3198.4,170.5,75.5,20.1
0.232000,707.7,177.5,2103.4,103.1,3216.3,164.1,710.2,2105.1,3199,170.3,75.4,19.7
0.234000,703.7,176.7,2103.7,106.8,3220.4,160.2,709.3,2104,3199.6,170.2,75.3,19.3
0.236000,699.5,177.6,2104.2,110.0,3223.2,157.1,708.6,2103.1,3200.1,170,75.2,18.8
0.238000,695.5,179.5,2104.8,112.5,3224.0,154.0,708,2102.4,3200.4,169.9,75.1,18.3
0.240000,691.2,181.4,2105.8,115.1,3223.0,150.7,707.6,2101.9,3200.7,169.8,74.9,17.7
0.242000,686.4,183.7,2106.7,118.6,3220.6,148.0,707.3,2101.6,3200.8,169.7,74.8,17
0.244000,681.7,187.7,2107.0,123.3,3218.7,146.8,707.2,2101.5,3200.9,169.5,74.6,16.3
