time,f1,b1,f2,b2,f3,b3,f1p,f2p,f3p,f0,intensity,harmonicity
0.026000,1036.5,281.9,1820.0,1243.3,2344.7,456.5,1014,1626.5,2391,180.9,65.1,-0.8
0.028000,1029.5,247.5,1740.2,1246.0,2349.8,422.1,1014,1623.6,2395,180.7,65.7,-0.1
0.030000,1024.8,234.3,1627.1,972.9,2388.5,405.0,1014,1618.8,2401.5,180.5,66.5,0.9
0.032000,1011.7,224.8,1546.5,665.0,2429.0,374.2,1014.1,1612.4,2410.4,180.2,67.5,2
0.034000,995.7,195.7,1511.1,449.2,2453.3,349.4,1014.4,1604.8,2421.4,179.9,68.6,3.2
0.036000,991.0,161.8,1504.9,347.0,2458.6,351.1,1014.8,1596.3,2434.1,179.7,69.7,4.5
0.038000,996.7,141.9,1514.2,312.7,2459.6,380.2,1015.5,1587.5,2448.3,179.4,70.7,6
0.040000,1005.3,134.0,1528.2,297.8,2468.8,402.3,1016.6,1578.7,2463.5,179.1,71.7,7.7
0.042000,1013.1,131.0,1540.7,276.4,2484.9,386.3,1018,1570.4,2479.3,178.7,72.5,9.3
0.044000,1020.1,130.6,1549.2,251.8,2503.0,343.0,1019.9,1563,2495.4,178.4,73.2,10.7
0.046000,1026.5,132.6,1553.5,237.4,2522.5,307.5,1022.2,1556.9,2511.3,178.1,73.9,11.6
0.048000,1032.8,135.8,1555.3,234.2,2543.6,288.1,1025,1552.4,2526.6,177.7,74.4,12.1
0.050000,1038.3,137.4,1556.8,235.2,2561.0,280.8,1028.3,1549.8,2541,177.4,74.8,12.5
0.052000,1041.6,136.0,1560.0,233.1,2569.2,282.1,1032,1549.1,2554.1,177,75.2,12.7
0.054000,1043.2,133.3,1565.3,227.3,2570.6,288.5,1036.1,1550.4,2565.8,176.6,75.5,13
0.056000,1044.6,131.3,1571.8,222.1,2570.0,295.3,1040.6,1553.5,2575.9,176.3,75.7,13.5
0.058000,1046.8,131.2,1578.0,222.0,2571.4,297.5,1045.2,1558.4,2584.1,175.9,75.9,14.2
0.060000,1050.3,132.9,1584.1,227.9,2575.2,295.2,1050,1564.8,2590.6,175.5,76,15.1
0.062000,1054.7,135.9,1590.8,237.6,2579.3,290.3,1054.7,1572.4,2595.3,175.2,76.1,15.8
0.064000,1058.8,138.4,1596.8,246.6,2580.7,286.0,1059.4,1580.7,2598.3,174.8,76.2,16
0.066000,1062.2,140.6,1602.1,254.1,2579.7,283.3,1063.8,1589.5,2599.7,174.4,76.3,15.6
0.068000,1065.1,142.5,1607.2,261.4,2579.8,281.8,1067.9,1598.2,2599.9,174.1,76.3,14.3
0.070000,1067.7,144.1,1612.7,270.7,2583.8,282.1,1071.5,1606.5,2599,173.7,76.4,12.4
0.072000,1070.7,146.1,1618.7,283.8,2591.2,285.0,1074.7,1614.1,2597.5,173.4,76.4,10.8
0.074000,1074.1,148.2,1623.6,297.7,2598.2,289.8,1077.3,1620.6,2595.5,173.1,76.5,9.9
0.076000,1077.6,150.1,1626.1,309.4,2601.8,296.4,1079.3,1625.8,2593.5,172.8,76.6,10.3
0.078000,1080.4,151.8,1626.1,316.7,2601.9,304.4,1080.8,1629.6,2591.8,172.5,76.7,12.1
0.080000,1081.7,152.9,1623.4,317.0,2600.6,311.5,1081.7,1631.8,2590.8,172.2,76.8,14.6
0.082000,1080.8,153.0,1617.9,308.5,2599.7,316.7,1082.1,1632.5,2590.7,171.9,76.9,17.3
0.084000,1078.7,153.0,1612.1,296.8,2600.9,320.8,1082,1631.9,2591.9,171.7,77,19.7
0.086000,1077.4,153.9,1608.3,287.7,2605.3,323.8,1081.6,1630,2594.6,171.4,77.2,21.5
0.088000,1077.8,156.6,1607.7,284.8,2613.5,326.2,1080.8,1627.1,2599,171.2,77.3,23
0.090000,1079.4,160.9,1608.9,288.0,2622.8,329.0,1079.9,1623.5,2605.2,171,77.4,24.2
0.092000,1081.3,164.9,1610.1,294.6,2631.2,332.8,1078.8,1619.5,2613.3,170.8,77.6,25.3
0.094000,1082.7,167.9,1611.0,304.5,2638.7,340.2,1077.6,1615.5,2623.4,170.6,77.7,26
0.096000,1083.3,169.5,1612.1,315.3,2645.3,352.0,1076.5,1611.6,2635.4,170.5,77.8,26.2
0.098000,1082.4,169.4,1612.4,322.2,2650.6,364.4,1075.3,1608.2,2649.1,170.3,77.9,25.9
0.100000,1079.6,168.0,1611.6,323.6,2654.7,375.9,1074.1,1605.5,2664.4,170.2,78,25.3
0.102000,1076.2,166.4,1610.5,323.1,2659.4,387.9,1072.9,1603.7,2681.2,170,78,24.5
0.104000,1073.2,165.3,1610.2,324.7,2667.7,401.2,1071.5,1602.9,2699.2,169.9,78.1,23.9
0.106000,1071.0,165.1,1611.6,330.6,2683.0,415.9,1070.1,1603,2718.1,169.8,78.1,23.6
0.108000,1069.4,165.2,1615.3,339.2,2704.8,430.5,1068.3,1604,2737.7,169.7,78.2,23.6
0.110000,1067.3,164.3,1620.5,345.6,2731.7,441.1,1066.2,1605.9,2757.5,169.6,78.2,23.8
0.112000,1064.0,161.5,1626.5,346.6,2764.0,444.0,1063.6,1608.4,2777.4,169.6,78.2,23.9
0.114000,1058.9,156.8,1632.0,341.1,2801.8,433.8,1060.4,1611.2,2797.1,169.5,78.3,23.8
0.116000,1052.5,151.0,1632.9,328.7,2836.7,405.8,1056.4,1614.2,2816.2,169.4,78.3,23.5
0.118000,1044.6,144.7,1627.9,310.8,2865.2,363.1,1051.6,1617.1,2834.5,169.3,78.4,22.9
0.120000,1035.7,138.4,1619.4,291.6,2886.3,316.9,1045.9,1619.5,2851.9,169.2,78.4,22.1
0.122000,1027.6,134.0,1611.8,278.0,2898.6,280.8,1039.3,1621.2,2868.1,169.2,78.5,21.4
0.124000,1020.4,131.6,1606.9,272.0,2905.8,254.3,1031.6,1622,2882.9,169.1,78.5,20.7
0.126000,1013.7,130.9,1604.2,271.1,2910.0,234.7,1023.1,1621.7,2896.4,169,78.5,20.4
0.128000,1007.9,130.9,1602.4,271.3,2912.0,221.6,1013.7,1620.3,2908.4,168.9,78.5,20.3
0.130000,1002.5,131.7,1600.6,271.2,2912.5,213.1,1003.7,1617.7,2918.9,168.9,78.5,20.4
0.132000,996.8,134.1,1598.2,270.7,2912.8,208.7,993,1614,2928,168.8,78.4,20.5
0.134000,991.0,138.0,1595.1,269.7,2913.8,208.6,982,1609.2,2935.6,168.7,78.3,20.3
0.136000,984.8,144.3,1592.1,270.2,2916.6,214.1,970.9,1603.6,2942.1,168.6,78.2,19.8
0.138000,978.1,153.5,1590.0,273.5,2923.0,227.4,960,1597.4,2947.3,168.5,78.1,19.1
0.140000,971.0,163.8,1589.0,277.8,2934.1,248.1,949.5,1590.9,2951.4,168.5,78,18.2
0.142000,962.6,174.8,1588.8,282.1,2951.5,276.5,939.7,1584.3,2954.7,168.4,77.8,17.2
0.144000,951.8,185.8,1588.1,284.1,2972.3,304.0,930.8,1578.1,2957.2,168.3,77.6,16.1
0.146000,937.9,193.6,1584.8,281.9,2981.8,305.6,923.2,1572.5,2959,168.2,77.4,14.9
0.148000,920.3,199.1,1579.1,279.4,2975.0,273.8,917,1567.8,2960.3,168.1,77.1,13.6
0.150000,901.3,205.3,1573.6,282.0,2964.4,229.7,912.5,1564.3,2961.1,168,76.8,12.3
0.152000,882.0,214.1,1568.7,290.7,2958.7,191.6,909.7,1562.1,2961.6,167.9,76.4,10.8
0.154000,862.6,224.2,1563.6,302.3,2956.2,163.6,908.8,1561.4,2961.8,167.9,75.9,9.4
