time,f1,b1,f2,b2,f3,b3,f1p,f2p,f3p,f0,intensity,harmonicity
0.026000,631.2,266.5,2152.2,92.7,2860.1,163.3,678.7,2182.4,2897,185.2,71.8,6.5
0.028000,644.4,274.5,2167.7,96.9,2873.7,170.6,679.5,2183.6,2897.9,184.9,72,6.9
0.030000,658.1,279.9,2182.4,96.9,2888.5,172.9,681,2185.6,2899.3,184.5,72.2,7.4
0.032000,670.5,279.9,2192.6,93.2,2900.9,170.3,683.1,2188.3,2901.3,184.2,72.2,7.8
0.034000,682.4,275.7,2198.3,88.2,2911.0,165.2,685.7,2191.6,2903.9,183.8,72.3,8.1
0.036000,693.6,270.9,2201.0,84.7,2918.6,161.1,688.9,2195.5,2906.9,183.4,72.3,8.2
0.038000,704.9,266.4,2203.0,84.3,2924.7,159.0,692.6,2199.9,2910.4,183,72.2,8.1
0.040000,715.0,262.4,2205.3,87.8,2929.5,158.7,696.8,2204.7,2914.3,182.6,72.2,7.8
0.042000,724.0,257.6,2209.5,94.6,2933.4,159.3,701.6,2209.8,2918.6,182.2,72.1,7.5
0.044000,731.5,251.8,2216.5,102.9,2935.9,161.4,706.8,2215.1,2923.2,181.8,72.1,7.4
0.046000,738.6,244.4,2226.3,111.9,2937.7,166.3,712.5,2220.4,2928,181.3,72.1,7.4
0.048000,744.4,234.4,2236.1,119.1,2939.6,173.9,718.6,2225.7,2933,180.9,72.1,7.7
0.050000,748.5,220.9,2243.9,123.2,2942.5,183.6,725,2230.8,2938.1,180.5,72.2,8
0.052000,751.2,207.6,2248.9,124.6,2946.6,193.5,731.8,2235.6,2943.2,180,72.3,8.4
0.054000,753.1,196.4,2252.0,123.7,2952.1,201.7,738.9,2240,2948.3,179.6,72.4,8.8
0.056000,754.6,188.6,2253.6,121.1,2957.7,206.6,746.1,2243.9,2953.2,179.2,72.5,9.3
0.058000,756.4,182.7,2254.1,117.5,2962.4,210.1,753.6,2247.2,2957.9,178.7,72.7,9.8
0.060000,758.4,177.9,2253.4,114.0,2964.8,213.4,761.2,2249.9,2962.4,178.3,72.9,10.4
0.062000,761.0,173.9,2251.4,111.5,2964.7,217.4,768.8,2251.9,2966.4,177.9,73,11
0.064000,764.7,171.5,2248.4,110.5,2962.9,222.4,776.4,2253.1,2970,177.5,73.2,11.5
0.066000,769.6,172.0,2245.6,111.1,2961.6,227.7,784,2253.5,2973.1,177.2,73.3,12.1
0.068000,776.4,175.8,2243.2,113.4,2962.3,233.9,791.4,2253,2975.6,176.8,73.3,12.8
0.070000,784.2,180.6,2241.3,116.1,2964.6,240.6,798.6,2251.8,2977.4,176.4,73.4,13.5
0.072000,793.0,183.9,2239.6,118.5,2967.7,248.4,805.5,2249.7,2978.5,176.1,73.4,14.1
0.074000,801.7,185.9,2238.0,120.7,2971.0,257.4,812.2,2246.8,2978.7,175.8,73.3,14.7
0.076000,810.3,186.5,2236.0,123.0,2973.2,266.1,818.5,2243.2,2978.2,175.4,73.3,15.1
0.078000,817.8,185.0,2233.3,125.0,2972.7,271.0,824.5,2238.8,2976.7,175.1,73.3,15.5
0.080000,825.2,182.0,2229.4,127.3,2969.8,273.1,830,2233.8,2974.4,174.9,73.2,15.8
0.082000,832.1,178.4,2224.9,129.7,2966.7,274.7,835.1,2228.1,2971.1,174.6,73.2,16.1
0.084000,838.7,173.7,2219.5,131.7,2965.0,278.8,839.8,2221.9,2966.9,174.3,73.2,16.3
0.086000,844.6,168.5,2213.8,133.2,2964.7,285.7,844,2215.1,2961.8,174.1,73.2,16.5
0.088000,849.7,162.0,2207.6,133.5,2963.6,292.8,847.8,2207.9,2955.8,173.9,73.2,16.7
0.090000,853.5,154.4,2201.6,132.4,2959.7,297.5,851.2,2200.4,2949,173.7,73.3,16.9
0.092000,856.7,145.9,2195.4,131.0,2952.3,301.1,854.2,2192.5,2941.3,173.5,73.3,17
0.094000,859.3,137.8,2189.8,130.7,2943.3,304.7,856.8,2184.3,2932.8,173.3,73.4,17
0.096000,861.7,130.2,2183.7,132.6,2933.5,309.7,859.2,2175.9,2923.6,173.1,73.5,17
0.098000,864.2,124.5,2176.8,137.3,2923.3,316.2,861.4,2167.3,2913.8,173,73.6,17
0.100000,866.5,119.9,2168.2,142.9,2911.9,321.6,863.4,2158.5,2903.5,172.8,73.7,17
0.102000,868.7,115.8,2157.1,147.4,2898.8,324.0,865.3,2149.6,2892.7,172.7,73.8,16.8
0.104000,870.7,112.0,2145.4,149.7,2885.7,324.2,867.2,2140.5,2881.5,172.6,73.9,16.7
0.106000,872.4,107.5,2133.4,149.6,2872.2,323.5,869.1,2131.4,2870.1,172.4,74.1,16.4
0.108000,873.8,103.1,2122.1,148.2,2858.1,323.6,871.1,2122.1,2858.6,172.3,74.2,15.8
0.110000,875.4,100.0,2110.8,147.5,2842.7,325.0,873.4,2112.7,2847,172.2,74.4,15.2
0.112000,877.4,99.5,2100.7,148.6,2828.8,326.7,875.9,2103.2,2835.6,172.1,74.5,14.7
0.114000,879.9,101.7,2090.1,151.6,2815.1,327.2,878.7,2093.6,2824.4,172.1,74.6,14.3
0.116000,882.8,105.1,2079.5,154.8,2801.8,323.9,881.9,2083.8,2813.5,172,74.7,14.3
0.118000,886.4,107.8,2069.0,157.0,2789.1,315.3,885.4,2073.9,2803.1,171.9,74.8,14.6
0.120000,890.5,109.9,2059.4,158.4,2778.5,303.6,889.4,2063.8,2793.2,171.8,74.9,15.1
0.122000,895.5,113.1,2049.9,160.0,2770.7,292.3,893.8,2053.5,2784,171.8,74.9,15.7
0.124000,900.8,118.1,2041.2,162.5,2766.7,287.0,898.6,2043,2775.5,171.7,74.9,16.3
0.126000,906.9,125.8,2032.1,166.8,2765.1,288.6,903.8,2032.4,2767.8,171.7,74.9,16.7
0.128000,912.9,134.3,2022.7,171.9,2764.2,292.9,909.3,2021.6,2761.1,171.6,74.9,17.2
0.130000,918.7,142.2,2012.4,177.5,2762.4,294.9,915.2,2010.6,2755.4,171.6,74.9,17.7
0.132000,923.8,148.7,2001.4,183.3,2759.5,292.3,921.3,1999.5,2750.6,171.6,74.9,18.2
0.134000,928.9,154.3,1989.8,188.3,2756.3,286.3,927.5,1988.3,2747,171.5,74.9,18.6
0.136000,934.1,159.0,1977.9,191.6,2753.2,279.1,933.9,1977,2744.4,171.5,74.9,18.8
0.138000,939.2,163.4,1966.3,193.8,2750.6,273.0,940.2,1965.7,2742.9,171.5,74.9,18.8
0.140000,944.5,168.0,1954.2,194.8,2748.7,267.3,946.3,1954.4,2742.5,171.4,74.9,18.8
0.142000,949.2,171.9,1942.3,194.3,2748.3,261.3,952.2,1943.2,2743.2,171.4,75,18.7
0.144000,953.5,175.2,1929.8,192.5,2749.3,254.6,957.7,1932.2,2745,171.4,75,18.6
0.146000,957.0,177.5,1918.7,189.7,2751.7,248.9,962.7,1921.4,2747.8,171.3,75.1,18.7
0.148000,960.0,178.7,1908.4,186.7,2755.4,245.1,967.1,1910.9,2751.6,171.3,75.2,18.9
0.150000,962.7,179.5,1899.3,184.9,2759.8,244.4,970.8,1900.8,2756.3,171.3,75.3,19.1
0.152000,965.5,180.0,1890.7,184.6,2764.8,246.3,973.7,1891.1,2761.8,171.3,75.3,19.4
0.154000,968.0,179.6,1883.0,185.7,2770.1,250.2,975.7,1881.9,2768.2,171.2,75.4,19.7
0.156000,970.1,179.4,1875.2,188.1,2775.9,255.7,976.8,1873.3,2775.2,171.2,75.4,19.9
0.158000,971.0,179.6,1867.8,190.1,2781.4,259.9,976.8,1865.4,2782.9,171.2,75.4,20.2
0.160000,970.4,179.8,1860.3,191.1,2786.3,261.8,975.7,1858.1,2791.1,171.2,75.4,20.6
0.162000,968.9,180.6,1853.1,192.3,2790.6,261.9,973.6,1851.5,2799.7,171.1,75.4,20.9
0.164000,967.1,182.3,1846.5,195.2,2796.3,261.9,970.4,1845.6,2808.6,171.1,75.4,21.2
0.166000,965.1,184.9,1841.3,200.8,2804.5,263.7,966.2,1840.5,2817.8,171.1,75.4,21.5
0.168000,962.8,188.3,1837.2,209.7,2814.8,267.1,961,1836.1,2827.1,171,75.4,21.8
0.170000,959.6,190.9,1833.7,218.2,2824.4,269.9,954.9,1832.5,2836.5,171,75.4,22.2
0.172000,955.0,192.2,1830.3,224.3,2833.5,271.8,947.9,1829.6,2845.9,170.9,75.4,22.5
0.174000,949.4,192.9,1827.0,228.3,2843.6,273.2,940.3,1827.4,2855.1,170.9,75.4,22.5
0.176000,943.2,192.5,1824.3,229.7,2855.9,272.9,932,1825.8,2864.1,170.8,75.4,22.2
0.178000,935.8,190.9,1822.4,229.2,2872.6,269.3,923.4,1824.8,2872.9,170.8,75.4,21.5
0.180000,927.8,188.5,1821.3,227.9,2891.3,261.5,914.4,1824.4,2881.3,170.7,75.3,20.6
0.182000,918.8,184.1,1820.9,225.7,2909.6,248.8,905.3,1824.3,2889.2,170.7,75.3,19.6
0.184000,909.3,178.0,1821.5,223.0,2924.5,234.8,896.3,1824.7,2896.7,170.6,75.2,18.6
0.186000,899.4,171.2,1823.6,221.4,2935.1,221.5,887.5,1825.3,2903.6,170.6,75.1,17.6
0.188000,890.1,165.8,1827.0,222.9,2938.1,210.6,879.1,1826.1,2910,170.5,75,16.6
0.190000,880.6,162.7,1832.0,229.3,2933.4,200.5,871.2,1827.1,2915.7,170.5,74.8,15.5
0.192000,871.5,162.8,1837.4,239.2,2926.2,191.2,864,1828.1,2920.7,170.4,74.5,14.4
0.194000,862.8,166.8,1841.2,250.1,2923.5,182.0,857.7,1829.1,2925,170.4,74.2,13.4
0.196000,855.0,176.0,1841.7,260.1,2927.0,173.4,852.3,1830,2928.5,170.3,73.8,13.2
0.198000,845.9,192.2,1838.2,269.9,2930.3,164.6,848,1830.8,2931.3,170.2,73.4,17.6
0.200000,833.7,213.1,1830.7,276.1,2925.5,155.7,844.9,1831.3,2933.3,170.2,72.8,22.8
0.202000,816.3,238.9,1819.8,276.1,2911.2,143.6,843,1831.7,2934.5,170.1,72,24
0.204000,796.3,266.8,1808.3,269.0,2894.7,127.5,842.4,1831.8,2934.9,170.1,71.1,16.3
