time,f1,b1,f2,b2,f3,b3,f1p,f2p,f3p,f0,intensity,harmonicity
0.025000,598.3,126.0,1497.1,122.6,2707.9,308.1,616.2,1532,2756.2,176.3,72.6,11
0.027000,606.4,121.2,1519.3,128.9,2729.5,286.4,616.4,1532.9,2756.5,176.4,72.7,12
0.029000,612.3,115.6,1537.9,126.7,2745.4,263.4,616.8,1534.5,2757.1,176.5,72.8,13.4
0.031000,616.5,110.4,1550.3,119.1,2755.2,247.2,617.3,1536.7,2758,176.6,72.9,15
0.033000,619.5,105.4,1556.6,110.2,2760.4,240.4,617.9,1539.4,2759,176.7,73,16.5
0.035000,621.5,100.9,1559.0,102.5,2762.7,241.2,618.7,1542.7,2760.3,176.9,73.1,17.8
0.037000,623.1,97.0,1560.0,96.4,2763.5,246.3,619.5,1546.3,2761.8,177,73.1,18.9
0.039000,624.4,93.8,1560.5,92.3,2763.5,252.6,620.5,1550.4,2763.5,177.2,73.2,19.9
0.041000,625.6,92.0,1561.2,90.1,2764.7,256.5,621.5,1554.7,2765.4,177.3,73.3,20.8
0.043000,626.7,92.3,1562.9,89.4,2769.1,253.6,622.6,1559.3,2767.5,177.5,73.3,21.4
0.045000,627.8,94.2,1565.8,89.8,2776.0,244.5,623.7,1564,2769.8,177.7,73.3,21.7
0.047000,628.8,97.1,1569.5,91.0,2783.2,234.2,624.8,1568.8,2772.2,177.9,73.3,21.3
0.049000,629.9,99.5,1573.5,92.3,2789.6,228.3,625.9,1573.6,2774.7,178,73.4,20.4
0.051000,630.7,100.9,1577.2,93.7,2794.2,230.4,627,1578.2,2777.4,178.3,73.4,19.3
0.053000,631.5,101.7,1580.6,95.7,2796.4,239.7,628.1,1582.7,2780.1,178.5,73.3,18.4
0.055000,632.2,102.3,1583.5,97.9,2795.7,251.1,629,1586.9,2782.9,178.7,73.3,18
0.057000,632.7,103.2,1586.2,100.5,2794.0,258.6,629.9,1590.8,2785.8,178.9,73.3,18.2
0.059000,632.9,104.1,1588.3,102.5,2794.2,260.2,630.7,1594.4,2788.6,179.1,73.3,18.9
0.061000,632.4,104.6,1589.7,103.5,2798.0,259.1,631.4,1597.5,2791.4,179.4,73.3,19.8
0.063000,631.7,104.9,1590.7,104.1,2804.1,261.2,631.9,1600.2,2794.1,179.6,73.3,20.7
0.065000,631.3,105.5,1592.0,105.6,2809.9,269.4,632.2,1602.4,2796.7,179.9,73.2,21.3
0.067000,631.3,106.7,1593.8,108.5,2813.2,281.6,632.4,1604.1,2799.2,180.1,73.2,21.8
0.069000,631.4,108.5,1596.0,112.9,2813.9,293.2,632.4,1605.3,2801.5,180.4,73.2,22.2
0.071000,631.3,110.3,1597.9,117.6,2813.3,300.1,632.2,1606,2803.6,180.6,73.2,22.5
0.073000,630.6,112.1,1599.3,122.3,2812.5,302.6,631.8,1606.3,2805.4,180.9,73.2,22.7
0.075000,629.7,114.7,1600.7,128.3,2811.1,304.9,631.1,1606.1,2807,181.2,73.1,22.5
0.077000,628.6,118.3,1602.4,136.2,2808.8,309.8,630.3,1605.4,2808.2,181.4,73.1,21.9
0.079000,627.5,122.6,1604.3,146.3,2805.9,319.7,629.3,1604.4,2809.2,181.7,73.1,20.9
0.081000,626.4,125.9,1605.4,157.0,2803.6,334.9,628,1603,2809.8,182,73.1,19.8
0.083000,625.0,126.9,1604.5,165.2,2803.7,353.6,626.5,1601.3,2810,182.2,73.1,18.7
0.085000,623.4,126.1,1602.1,170.4,2806.3,376.1,624.9,1599.4,2809.9,182.5,73.1,18
0.087000,621.7,125.2,1600.0,174.3,2808.8,403.4,623,1597.3,2809.5,182.8,73.2,17.8
0.089000,620.0,125.2,1599.8,177.5,2807.4,425.4,621,1595,2808.7,183,73.2,17.8
0.091000,618.2,125.6,1600.6,180.3,2802.2,433.4,618.7,1592.7,2807.5,183.3,73.2,17.9
0.093000,615.9,125.5,1601.2,182.5,2795.4,423.7,616.3,1590.3,2806,183.6,73.3,18
0.095000,613.3,124.5,1600.7,184.9,2788.6,399.6,613.8,1587.9,2804.2,183.8,73.4,18
0.097000,610.5,122.7,1598.5,188.2,2781.6,366.0,611.2,1585.5,2802.2,184.1,73.4,17.8
0.099000,607.6,120.0,1594.7,190.9,2774.8,326.6,608.4,1583.2,2800,184.3,73.5,17.5
0.101000,604.8,116.4,1589.5,191.5,2769.3,284.7,605.5,1581,2797.6,184.6,73.6,17.2
0.103000,601.9,112.3,1584.8,189.5,2766.6,248.7,602.5,1578.8,2795,184.8,73.6,16.9
0.105000,598.7,107.9,1580.9,185.3,2766.1,218.5,599.5,1576.8,2792.4,185,73.7,16.8
0.107000,595.2,103.8,1577.8,180.6,2766.6,194.2,596.4,1574.9,2789.8,185.2,73.8,16.9
0.109000,591.9,100.6,1574.7,177.1,2767.9,175.5,593.3,1573.1,2787.3,185.4,73.9,17.1
0.111000,588.9,98.2,1571.7,175.3,2770.3,161.2,590.2,1571.3,2784.9,185.6,73.9,17.4
0.113000,586.1,96.8,1569.0,174.7,2774.6,150.1,587,1569.6,2782.6,185.8,74,17.7
0.115000,583.8,96.5,1567.5,174.1,2781.2,141.5,583.9,1567.9,2780.6,186,74,18
0.117000,581.6,97.0,1566.6,172.1,2789.4,133.7,580.8,1566.1,2778.9,186.1,74,18.4
0.119000,579.2,97.7,1564.9,167.6,2797.0,126.4,577.7,1564.3,2777.5,186.3,74,18.7
0.121000,576.5,97.7,1561.6,160.3,2801.9,120.4,574.6,1562.4,2776.5,186.4,74,19.1
0.123000,573.7,96.7,1557.0,151.7,2804.3,116.1,571.6,1560.3,2775.9,186.5,74,19.4
0.125000,570.7,94.9,1552.0,142.9,2805.3,113.8,568.7,1558.1,2775.7,186.6,74,19.6
0.127000,567.7,93.0,1547.4,135.2,2805.4,113.9,565.8,1555.5,2776,186.7,73.9,19.8
0.129000,564.6,90.9,1542.8,128.2,2804.9,115.3,562.9,1552.7,2776.8,186.7,73.9,19.9
0.131000,561.7,89.1,1537.8,121.6,2803.4,116.6,560.2,1549.6,2778,186.8,73.8,19.9
0.133000,559.0,87.8,1532.8,115.5,2801.8,116.2,557.4,1546.1,2779.6,186.8,73.7,19.9
0.135000,556.4,87.5,1528.3,110.5,2801.0,114.1,554.7,1542.3,2781.7,186.8,73.6,19.9
0.137000,553.9,87.9,1524.6,106.6,2802.0,111.3,552.1,1538.1,2784.1,186.8,73.6,19.9
0.139000,551.3,89.1,1521.4,104.0,2804.5,109.1,549.5,1533.5,2786.8,186.8,73.4,19.8
0.141000,548.7,91.1,1518.8,102.9,2807.5,109.2,546.9,1528.5,2789.7,186.7,73.3,19.7
0.143000,546.1,93.7,1516.1,102.9,2810.1,112.6,544.4,1523.2,2792.8,186.7,73.2,19.6
0.145000,543.4,96.6,1513.1,103.9,2811.3,118.9,541.9,1517.6,2795.9,186.6,73,19.6
0.147000,540.7,99.4,1509.4,104.9,2809.7,125.2,539.4,1511.7,2799,186.5,72.9,19.6
0.149000,537.9,101.6,1505.0,104.6,2804.4,128.2,536.9,1505.5,2801.9,186.4,72.7,19.6
0.151000,534.9,103.3,1500.2,102.5,2797.2,126.6,534.3,1499.2,2804.5,186.3,72.6,19.7
0.153000,532.0,104.9,1496.1,99.5,2791.4,121.7,531.8,1492.8,2806.8,186.2,72.5,19.7
0.155000,529.0,107.3,1492.6,97.1,2787.4,115.5,529.2,1486.4,2808.5,186,72.4,19.8
0.157000,525.9,110.2,1489.2,95.3,2784.2,109.4,526.6,1480,2809.7,185.9,72.3,19.7
0.159000,522.5,112.6,1485.4,94.0,2780.6,104.7,523.9,1473.8,2810.1,185.7,72.2,19.6
0.161000,519.0,114.7,1480.9,93.8,2776.5,101.8,521.2,1467.7,2809.6,185.5,72.2,19.6
0.163000,515.4,117.2,1476.2,95.6,2772.3,100.4,518.4,1462.1,2808.2,185.3,72.1,19.6
0.165000,511.8,120.4,1471.3,99.5,2767.8,99.9,515.6,1456.8,2805.8,185.1,72,19.7
0.167000,508.3,123.9,1466.8,104.8,2763.6,100.1,512.7,1452,2802.2,184.9,71.9,20
0.169000,504.7,127.0,1462.5,111.2,2759.3,101.0,509.7,1447.7,2797.5,184.7,71.9,20.4
0.171000,501.2,130.4,1458.5,119.1,2755.2,103.2,506.7,1444.2,2791.5,184.5,71.8,20.9
0.173000,498.0,134.5,1454.6,129.0,2751.6,107.3,503.5,1441.3,2784.3,184.2,71.7,21.4
0.175000,495.3,139.4,1450.4,139.3,2748.7,113.4,500.4,1439.1,2775.8,184,71.7,21.8
0.177000,492.7,144.4,1446.1,147.7,2745.7,121.2,497.2,1437.8,2766,183.7,71.7,22
0.179000,490.0,148.2,1443.3,151.0,2741.9,128.0,493.9,1437.3,2755,183.4,71.6,22.1
0.181000,487.3,151.3,1442.2,150.5,2736.8,133.3,490.6,1437.6,2742.8,183.2,71.6,22.2
0.183000,484.7,154.4,1442.2,148.5,2730.7,138.0,487.2,1438.7,2729.5,182.9,71.6,22.4
0.185000,482.4,158.0,1442.8,146.6,2724.3,143.6,483.9,1440.6,2715.2,182.6,71.5,22.5
0.187000,480.6,162.3,1444.0,145.3,2718.3,150.3,480.5,1443.4,2699.9,182.3,71.5,22.8
0.189000,479.4,167.0,1445.7,143.6,2713.1,157.1,477.2,1446.8,2683.8,182,71.5,23.2
0.191000,478.5,171.7,1447.6,140.3,2708.3,162.9,473.9,1450.9,2667.2,181.6,71.5,23.5
0.193000,477.9,176.8,1449.2,136.1,2702.8,167.4,470.6,1455.7,2650,181.3,71.5,23.7
0.195000,477.1,181.3,1449.9,131.7,2693.8,171.7,467.5,1460.9,2632.5,181,71.5,23.6
0.197000,475.6,183.7,1449.6,127.4,2680.4,176.7,464.4,1466.5,2614.9,180.7,71.5,23.1
0.199000,473.1,183.1,1448.5,123.5,2665.4,186.1,461.4,1472.5,2597.4,180.3,71.4,22.3
0.201000,469.3,178.3,1446.5,120.0,2650.5,208.0,458.5,1478.6,2580.1,180,71.4,21.4
0.203000,464.4,168.6,1443.9,115.5,2627.5,244.9,455.8,1484.8,2563.3,179.6,71.4,20.4
0.205000,459.8,156.1,1442.3,109.6,2589.9,261.2,453.2,1491,2547.2,179.3,71.3,19.5
0.207000,456.2,145.9,1443.5,105.8,2554.4,241.0,450.9,1497.1,2531.9,179,71.3,18.8
0.209000,453.7,145.8,1449.7,110.7,2534.0,214.9,448.7,1502.8,2517.7,178.6,71.2,18.3
0.211000,451.5,154.5,1461.6,124.5,2521.0,197.1,446.7,1508.2,2504.7,178.3,71.1,17.7
0.213000,448.8,162.0,1478.1,141.2,2504.8,186.1,445,1513.1,2493,178,71,16.9
0.215000,445.2,167.2,1501.0,158.1,2484.1,183.2,443.5,1517.4,2482.9,177.6,70.7,15.7
0.217000,441.5,171.1,1529.0,168.3,2462.3,191.1,442.3,1521.1,2474.5,177.3,70.4,13.9
0.219000,437.4,177.0,1561.5,167.0,2437.6,211.2,441.3,1524,2467.8,177,70,11.6
0.221000,432.0,190.1,1592.5,156.4,2406.5,243.3,440.6,1526.1,2462.9,176.7,69.4,9.1
0.223000,424.1,206.8,1613.9,141.7,2363.5,281.1,440.2,1527.4,2460,176.4,68.6,7
0.225000,412.3,208.4,1623.5,125.0,2303.2,311.0,440.1,1527.8,2459,176.2,67.7,5.6
