time,f1,b1,f2,b2,f3,b3,f1p,f2p,f3p,f0,intensity,harmonicity
0.026000,713.4,692.5,1548.5,530.0,3247.0,335.4,727.3,1655.3,3246.2,170.8,74.2,7.1
0.028000,723.5,566.2,1616.3,459.4,3248.5,289.4,729.1,1659.4,3245.2,170.8,74.6,7.1
0.030000,731.6,485.2,1666.0,393.9,3248.0,258.2,732.2,1666.1,3243.7,170.8,75.1,7.4
0.032000,738.8,431.6,1704.2,338.1,3243.5,233.7,736.4,1675.1,3241.7,170.7,75.5,7.9
0.034000,745.4,398.8,1730.5,295.3,3237.5,213.8,741.6,1686.3,3239.5,170.7,75.9,8.4
0.036000,752.1,376.1,1746.8,261.8,3232.4,197.6,747.9,1699.3,3237.3,170.7,76.2,9.2
0.038000,758.8,359.3,1755.4,236.5,3229.8,187.0,755,1713.6,3235.2,170.6,76.4,10.2
0.040000,766.3,347.1,1760.5,218.6,3229.3,181.9,762.7,1728.9,3233.5,170.6,76.6,11.4
0.042000,774.6,336.8,1764.9,207.0,3229.8,179.1,771.1,1744.7,3232.3,170.5,76.8,12.6
0.044000,783.4,325.4,1769.7,201.1,3230.6,174.9,779.8,1760.6,3231.8,170.5,76.9,13.6
0.046000,792.7,312.1,1775.7,200.8,3232.0,168.8,788.6,1776.1,3232,170.4,76.9,14.3
0.048000,801.7,296.1,1783.4,204.4,3234.1,162.6,797.4,1791,3233,170.4,77,14.6
0.050000,809.3,276.5,1792.6,209.8,3237.2,158.8,806,1804.8,3234.8,170.3,77,14.7
0.052000,815.7,254.0,1802.8,216.9,3241.4,158.5,814.1,1817.2,3237.2,170.2,77,14.9
0.054000,820.4,232.3,1812.3,223.4,3245.7,160.4,821.6,1828.2,3240.1,170.1,77,15.1
0.056000,823.9,212.6,1819.6,225.0,3249.2,162.2,828.2,1837.5,3243.4,170,77,15.7
0.058000,827.3,197.7,1825.5,222.6,3251.4,163.3,834,1845.1,3246.8,169.9,77.1,16.7
0.060000,831.2,190.1,1832.3,221.0,3252.6,163.7,838.8,1851,3250.1,169.8,77.1,17.8
0.062000,835.7,190.0,1841.5,222.7,3252.5,162.9,842.5,1855.4,3253.2,169.7,77.1,18.9
0.064000,840.5,194.5,1851.9,226.2,3251.8,160.6,845.2,1858.4,3255.7,169.6,77.2,19.5
0.066000,844.9,199.0,1861.1,227.8,3251.3,157.4,847,1860.3,3257.6,169.5,77.2,19.6
0.068000,848.0,200.2,1868.0,225.4,3251.2,154.1,847.8,1861.2,3258.8,169.4,77.3,18.9
0.070000,849.9,198.5,1873.3,220.1,3251.7,151.8,848,1861.6,3259.1,169.2,77.3,17.8
0.072000,850.5,194.2,1876.3,211.2,3253.1,150.5,847.5,1861.7,3258.7,169.1,77.4,16.7
0.074000,849.3,187.4,1876.1,198.7,3255.3,150.2,846.7,1861.8,3257.5,169,77.4,15.9
0.076000,847.6,180.3,1874.5,185.7,3257.9,152.0,845.8,1862.2,3255.7,168.9,77.4,15.8
0.078000,846.4,175.1,1873.1,175.1,3258.7,155.5,844.8,1863.2,3253.4,168.7,77.4,16.2
0.080000,846.4,172.2,1872.5,166.9,3255.2,158.8,844,1864.8,3250.8,168.6,77.4,16.9
0.082000,847.1,171.9,1872.9,160.8,3248.8,160.8,843.4,1867.4,3248,168.5,77.4,17.6
0.084000,847.9,174.8,1874.2,157.8,3244.7,160.4,843.3,1870.8,3245.4,168.4,77.3,18.3
0.086000,848.3,182.0,1876.4,159.7,3245.8,158.1,843.5,1875.1,3242.9,168.2,77.3,18.6
0.088000,848.3,192.0,1879.5,166.0,3249.0,155.2,844,1880.2,3240.8,168.1,77.2,18.7
0.090000,847.5,201.6,1882.8,174.0,3249.5,152.6,844.8,1886,3239.2,168,77.1,18.8
0.092000,845.9,208.3,1885.9,181.6,3245.4,150.9,845.7,1892.2,3238.1,167.9,76.9,18.7
0.094000,843.8,213.4,1889.5,189.4,3238.9,150.8,846.4,1898.7,3237.5,167.8,76.8,18.7
0.096000,842.0,218.3,1894.0,196.7,3233.3,152.1,846.9,1905.1,3237.2,167.7,76.6,18.6
0.098000,840.5,224.2,1899.2,203.0,3230.2,154.5,846.8,1911.2,3237.3,167.6,76.5,18.5
0.100000,839.2,232.2,1904.8,209.6,3228.8,157.5,845.8,1916.7,3237.6,167.5,76.3,18.4
0.102000,837.4,240.5,1910.3,217.1,3228.3,160.5,843.8,1921.4,3237.8,167.4,76.2,18.2
0.104000,834.3,248.4,1915.7,226.4,3228.8,164.3,840.6,1925.1,3237.9,167.3,76,18.1
0.106000,830.3,257.7,1922.0,238.8,3230.4,170.7,836,1927.5,3237.6,167.2,75.8,18.1
0.108000,826.0,268.1,1928.7,250.9,3232.7,178.4,829.9,1928.6,3236.9,167.1,75.6,18.2
0.110000,820.9,278.7,1934.5,258.3,3234.9,186.0,822.5,1928.4,3235.7,167,75.4,18.4
0.112000,815.5,289.3,1938.0,260.6,3236.9,192.4,813.8,1926.9,3233.8,166.9,75.2,18.6
0.114000,809.2,299.7,1938.9,260.5,3238.2,197.1,804,1924.2,3231.3,166.8,75,18.7
0.116000,801.3,309.1,1937.2,261.2,3237.4,200.2,793.4,1920.6,3228.2,166.8,74.8,18.7
0.118000,791.9,318.7,1933.2,263.7,3233.7,203.0,782.3,1916.1,3224.7,166.7,74.7,18.8
0.120000,782.3,329.2,1926.8,264.8,3228.4,206.8,771.1,1911.2,3220.9,166.6,74.5,18.8
0.122000,772.5,343.3,1918.3,263.5,3224.0,214.4,760.2,1906.1,3217,166.5,74.4,18.7
0.124000,762.6,361.2,1908.6,260.0,3220.9,227.2,750,1901.1,3213.2,166.5,74.2,18.1
0.126000,751.5,376.8,1899.2,254.2,3217.9,242.7,741,1896.6,3209.7,166.4,74,16.9
0.128000,738.3,388.4,1890.3,249.8,3213.0,262.3,733.6,1892.7,3206.8,166.3,73.7,14.8
0.130000,723.1,405.2,1880.1,252.3,3204.4,293.7,728,1889.8,3204.5,166.2,73.2,12.3
0.132000,709.1,432.6,1869.5,261.9,3191.8,336.2,724.6,1887.9,3203.1,166.2,72.7,9.7
0.134000,693.8,473.7,1860.1,276.0,3175.4,387.4,723.4,1887.3,3202.7,166.1,72.1,7.5
