time,f1,b1,f2,b2,f3,b3,f1p,f2p,f3p,f0,intensity,harmonicity
0.026000,689.2,246.1,1777.2,121.1,2784.8,140.8,707.4,1742.4,2721.5,195.7,68.5,6.5
0.028000,704.3,231.8,1769.4,128.7,2781.8,184.4,706.7,1742.6,2720.4,195.4,68.9,7.8
0.030000,709.4,232.9,1764.3,147.6,2760.4,228.9,705.5,1743,2718.5,195.2,69.4,9.2
0.032000,709.2,235.8,1759.0,163.1,2728.8,245.3,703.9,1743.3,2716,195,69.9,10.6
0.034000,708.1,237.8,1753.8,164.8,2702.0,235.2,701.8,1743.7,2712.9,194.7,70.3,11.8
0.036000,705.7,240.7,1747.9,156.5,2681.4,217.4,699.3,1744,2709.2,194.4,70.7,12.7
0.038000,701.5,243.8,1739.6,143.0,2665.4,199.4,696.3,1744.2,2705,194.2,71.2,13.6
0.040000,696.2,246.7,1730.6,127.9,2655.6,182.3,693.1,1744.2,2700.4,193.9,71.6,14.3
0.042000,690.7,248.2,1724.2,114.6,2654.4,167.5,689.5,1743.8,2695.5,193.6,72,14.8
0.044000,685.4,247.6,1721.3,105.9,2659.5,157.4,685.6,1743,2690.3,193.3,72.3,15.2
0.046000,680.2,244.5,1720.6,101.8,2665.8,154.3,681.4,1741.7,2685.1,193,72.6,15.3
0.048000,675.2,238.8,1720.3,100.4,2669.4,159.0,677,1739.7,2679.8,192.6,72.8,15.2
0.050000,669.8,230.5,1719.5,99.3,2670.0,171.2,672.4,1737.1,2674.7,192.3,73,14.9
0.052000,664.5,221.2,1718.1,97.8,2668.2,186.6,667.7,1733.8,2669.7,192,73.2,14.5
0.054000,659.6,212.1,1715.9,95.9,2665.0,198.3,662.9,1729.7,2665,191.7,73.3,14.2
0.056000,655.2,203.9,1713.0,94.5,2661.1,202.5,657.9,1724.7,2660.6,191.3,73.4,14.1
0.058000,651.1,196.8,1709.5,94.2,2657.2,201.0,653,1718.8,2656.6,191,73.5,14.1
0.060000,647.0,190.2,1705.5,95.1,2654.0,197.3,648,1712.2,2653.1,190.7,73.5,14.1
0.062000,642.7,183.6,1700.6,97.2,2651.7,193.5,643,1704.6,2650.1,190.3,73.6,14.3
0.064000,638.2,176.3,1694.4,99.8,2650.1,189.7,638.1,1696.3,2647.6,190,73.7,14.6
0.066000,633.5,168.5,1686.9,102.6,2649.5,186.3,633.2,1687.2,2645.7,189.7,73.7,15.1
0.068000,629.0,161.3,1679.1,105.6,2649.5,183.5,628.4,1677.4,2644.3,189.3,73.8,15.9
0.070000,624.9,155.3,1671.5,109.5,2650.0,180.3,623.7,1667.1,2643.5,189,73.9,16.9
0.072000,621.3,151.0,1664.4,114.7,2650.9,177.7,619.1,1656.2,2643.2,188.7,74,17.8
0.074000,617.4,146.5,1656.3,120.9,2652.4,179.7,614.7,1645,2643.4,188.4,74.1,18.7
0.076000,612.5,139.7,1645.0,126.4,2653.8,189.4,610.3,1633.5,2644,188.1,74.2,19.4
0.078000,607.2,131.3,1631.7,129.1,2654.5,203.4,606,1621.9,2645,187.8,74.3,19.9
0.080000,602.3,123.4,1619.0,129.8,2654.2,214.6,601.9,1610.2,2646.3,187.5,74.4,20.4
0.082000,597.8,117.2,1608.2,131.1,2653.8,219.9,597.9,1598.7,2647.9,187.2,74.5,20.8
0.084000,593.7,113.0,1598.4,133.8,2654.2,219.2,593.9,1587.3,2649.6,187,74.6,21
0.086000,590.1,110.3,1589.0,136.3,2656.0,212.8,590.1,1576.3,2651.4,186.7,74.6,20.9
0.088000,587.0,108.6,1579.7,136.9,2658.2,203.4,586.4,1565.6,2653.2,186.4,74.7,20.5
0.090000,583.6,106.2,1569.1,135.4,2659.8,193.5,582.8,1555.4,2654.9,186.2,74.8,20
0.092000,579.8,102.5,1557.1,132.3,2660.1,186.3,579.2,1545.8,2656.6,185.9,74.8,19.4
0.094000,575.9,97.8,1544.0,128.3,2659.5,182.6,575.7,1536.7,2658,185.7,74.9,18.9
0.096000,572.1,93.3,1531.0,123.0,2658.7,180.7,572.3,1528.1,2659.2,185.4,75,18.6
0.098000,568.7,89.2,1519.0,115.8,2657.6,180.2,569,1520.2,2660.1,185.2,75,18.6
0.100000,565.2,85.1,1508.1,107.0,2655.9,181.3,565.7,1512.8,2660.6,185,75.1,18.6
0.102000,561.5,80.1,1498.3,97.3,2653.6,183.6,562.5,1505.9,2660.8,184.8,75.1,18.7
0.104000,557.8,74.9,1489.6,87.9,2651.4,186.3,559.3,1499.5,2660.6,184.6,75.1,18.8
0.106000,554.5,70.6,1482.7,80.3,2650.3,188.6,556.1,1493.5,2660.1,184.4,75.1,18.9
0.108000,551.2,67.0,1476.9,74.1,2650.0,191.0,553,1487.8,2659.1,184.2,75,19
0.110000,548.2,64.0,1471.7,69.5,2649.5,194.2,550,1482.4,2657.8,184,74.9,19.2
0.112000,545.1,61.2,1466.7,65.9,2648.0,199.6,547,1477.2,2656.1,183.8,74.9,19.4
0.114000,542.1,58.5,1461.5,63.2,2645.7,207.4,544.1,1472.1,2654.1,183.6,74.8,19.5
0.116000,539.3,56.5,1456.4,61.7,2643.7,216.3,541.2,1466.9,2651.9,183.4,74.6,19.6
0.118000,536.9,55.9,1451.5,62.0,2642.3,223.4,538.3,1461.8,2649.3,183.3,74.5,19.5
0.120000,534.8,56.8,1446.9,64.0,2641.2,225.6,535.6,1456.5,2646.6,183.1,74.4,19.3
0.122000,533.0,59.0,1442.8,67.8,2640.2,223.5,532.9,1451.1,2643.8,183,74.2,19.2
0.124000,531.1,61.8,1439.2,73.1,2638.8,220.3,530.2,1445.5,2640.8,182.8,74.1,19.2
0.126000,529.3,65.1,1436.1,80.0,2637.7,218.2,527.7,1439.8,2637.8,182.7,73.9,19.4
0.128000,527.4,69.1,1432.9,89.2,2637.3,216.1,525.2,1433.9,2634.8,182.5,73.8,19.7
0.130000,525.5,73.6,1429.4,99.9,2637.8,213.1,522.8,1428,2631.9,182.4,73.6,20.1
0.132000,523.8,78.7,1425.2,111.4,2638.6,210.2,520.4,1422,2629,182.3,73.4,20.6
0.134000,522.1,83.9,1420.5,122.4,2638.9,209.0,518.1,1416.1,2626.2,182.1,73.2,21
0.136000,520.2,89.0,1415.8,131.2,2638.5,210.2,515.9,1410.3,2623.6,182,73.1,21.5
0.138000,518.1,93.8,1411.3,137.3,2637.0,214.1,513.8,1404.9,2621.2,181.9,73,22
0.140000,515.5,97.1,1407.0,141.0,2634.0,220.7,511.7,1399.8,2618.9,181.8,72.8,22.5
0.142000,512.2,98.2,1402.5,143.1,2628.9,230.6,509.6,1395.4,2616.8,181.7,72.7,23
0.144000,508.8,97.6,1398.2,143.9,2622.5,243.2,507.6,1391.8,2615,181.6,72.6,23.5
0.146000,505.0,95.9,1394.8,141.9,2615.8,256.6,505.7,1389.1,2613.3,181.5,72.5,23.9
0.148000,501.5,94.4,1393.8,137.3,2610.9,266.9,503.7,1387.4,2611.8,181.4,72.4,24.5
0.150000,498.4,93.8,1395.3,131.2,2608.3,273.1,501.8,1387,2610.4,181.3,72.4,25.1
0.152000,495.6,93.8,1399.0,125.1,2606.4,276.4,499.9,1388,2609.2,181.3,72.3,25.5
0.154000,493.0,94.4,1404.2,119.9,2604.3,277.4,498,1390.6,2608.1,181.2,72.2,25.7
0.156000,490.9,95.4,1410.6,114.9,2601.8,273.5,496.1,1394.7,2607.1,181.1,72.2,25.6
0.158000,489.1,96.8,1417.6,108.9,2599.2,263.3,494.2,1400.5,2606.2,181,72.2,25.2
0.160000,487.6,98.2,1424.6,101.5,2596.8,249.1,492.2,1408.1,2605.3,181,72.1,24.5
0.162000,486.1,99.0,1431.0,93.0,2594.5,234.3,490.3,1417.4,2604.5,180.9,72.1,23.8
0.164000,484.9,99.6,1436.9,85.2,2593.1,221.0,488.3,1428.5,2603.6,180.8,72.1,23
0.166000,483.8,101.2,1443.6,78.6,2592.7,208.3,486.3,1441.2,2602.7,180.8,72.1,22.3
0.168000,482.7,103.9,1450.6,74.4,2593.0,198.5,484.3,1455.5,2601.8,180.7,72.1,21.6
0.170000,481.7,107.6,1458.3,73.0,2592.5,193.9,482.3,1471.3,2600.8,180.6,72.1,20.8
0.172000,480.8,112.2,1467.0,74.8,2590.8,193.2,480.3,1488.3,2599.8,180.6,72.1,20.1
0.174000,480.2,117.9,1477.2,80.7,2588.8,193.7,478.3,1506.4,2598.7,180.5,72,19.6
0.176000,480.0,124.0,1491.0,91.3,2588.3,195.6,476.4,1525.2,2597.5,180.4,72,19.3
0.178000,479.9,128.3,1510.5,104.3,2590.7,201.1,474.4,1544.7,2596.3,180.4,72,19.4
0.180000,479.5,129.1,1536.5,115.3,2596.3,210.1,472.6,1564.4,2595.1,180.3,71.9,19.7
0.182000,478.8,127.2,1566.6,119.0,2604.0,218.3,470.8,1584,2593.8,180.2,71.9,19.9
0.184000,477.5,124.1,1594.3,113.5,2610.9,222.0,469,1603.4,2592.6,180.2,71.9,19.8
0.186000,475.7,120.9,1618.0,101.9,2616.1,223.3,467.4,1622,2591.3,180.1,71.9,19.3
0.188000,473.2,118.5,1635.1,90.6,2618.5,226.5,465.9,1639.7,2590.1,180,71.8,18.4
0.190000,470.0,116.6,1646.8,83.5,2616.7,235.4,464.5,1656.2,2589,180,71.8,17.2
0.192000,466.4,116.4,1657.2,82.0,2609.6,245.8,463.3,1671.1,2587.9,179.9,71.7,15.9
0.194000,462.9,120.3,1671.8,86.4,2600.6,250.5,462.2,1684.1,2587,179.8,71.6,14.3
0.196000,459.6,126.9,1693.0,95.5,2591.8,251.0,461.3,1695.2,2586.2,179.8,71.3,13.5
0.198000,456.2,131.6,1717.9,105.3,2580.6,248.1,460.6,1704,2585.6,179.7,70.8,16.7
0.200000,452.8,130.7,1740.0,109.7,2566.6,235.2,460.1,1710.4,2585.1,179.6,70.2,20.4
0.202000,449.9,124.9,1755.0,106.1,2555.5,208.0,459.8,1714.3,2584.8,179.6,69.3,20.2
0.204000,446.3,115.5,1765.2,96.8,2549.2,170.5,459.7,1715.6,2584.7,179.5,68.2,11.6
