time,f1,b1,f2,b2,f3,b3,f1p,f2p,f3p,f0,intensity,harmonicity
0.025000,688.0,201.9,2108.3,198.0,2868.2,232.3,751.4,2086.5,2770.7,180.7,71.3,10.3
0.027000,703.3,188.9,2104.2,198.4,2858.3,227.3,752.9,2085,2769.2,180.4,71.3,11.2
0.029000,719.9,181.6,2099.9,202.7,2846.9,239.9,755.5,2082.4,2766.8,180.2,71.3,11.8
0.031000,737.1,178.4,2095.1,210.5,2829.4,266.6,759.1,2078.9,2763.5,179.9,71.3,12.3
0.033000,754.1,177.3,2089.0,220.4,2801.5,293.7,763.6,2074.4,2759.3,179.7,71.4,12.6
0.035000,769.7,176.5,2081.2,227.8,2769.4,300.5,768.9,2068.9,2754.3,179.4,71.4,12.9
0.037000,783.9,174.0,2072.0,229.5,2743.3,290.6,775.1,2062.6,2748.5,179.2,71.5,13
0.039000,798.7,166.9,2059.9,226.9,2720.7,278.6,781.9,2055.5,2742,179,71.6,12.8
0.041000,812.5,156.5,2044.5,226.6,2698.7,276.3,789.4,2047.7,2734.8,178.7,71.7,12.6
0.043000,823.9,145.8,2027.7,231.1,2678.1,282.5,797.3,2039.1,2727.1,178.5,71.9,12.5
0.045000,835.1,134.5,2010.3,236.0,2657.8,287.6,805.7,2030,2718.9,178.3,72.2,12.7
0.047000,846.4,123.5,1995.0,238.2,2639.1,285.6,814.3,2020.3,2710.3,178.1,72.4,13.4
0.049000,856.5,113.7,1984.6,239.0,2624.1,278.5,823.2,2010.1,2701.4,178,72.6,14.5
0.051000,864.1,106.4,1980.6,240.0,2615.2,269.7,832.1,1999.5,2692.3,177.8,72.9,15.7
0.053000,870.1,100.7,1978.6,240.4,2610.2,257.5,841,1988.6,2683,177.7,73.1,16.7
0.055000,874.3,95.9,1972.5,236.5,2606.7,238.8,849.7,1977.4,2673.8,177.6,73.3,17.2
0.057000,876.8,90.4,1959.6,225.2,2604.2,213.2,858.2,1966,2664.6,177.5,73.5,16.9
0.059000,878.9,82.6,1941.9,205.3,2604.4,184.3,866.4,1954.5,2655.7,177.4,73.7,16.1
0.061000,881.5,72.9,1925.7,183.7,2609.9,162.8,874.2,1943,2646.9,177.4,73.9,15.1
0.063000,884.2,64.1,1914.0,167.5,2620.5,152.6,881.5,1931.3,2638.6,177.3,74.1,14.3
0.065000,886.8,57.3,1903.9,156.7,2633.9,148.9,888.3,1919.7,2630.6,177.3,74.3,14.1
0.067000,889.1,53.1,1894.8,150.7,2642.6,148.8,894.5,1908.2,2623.1,177.3,74.4,14.7
0.069000,890.8,51.2,1887.3,148.4,2643.0,152.9,900.2,1896.7,2616.2,177.4,74.5,15.8
0.071000,892.2,50.4,1880.6,148.3,2638.3,161.5,905.2,1885.4,2610,177.4,74.6,17.2
0.073000,893.3,50.2,1874.9,148.8,2634.9,170.9,909.6,1874.2,2604.3,177.5,74.7,18.5
0.075000,894.0,50.6,1871.1,148.5,2636.3,176.4,913.4,1863.1,2599.4,177.5,74.7,19.4
0.077000,894.9,51.5,1867.8,148.3,2640.5,177.4,916.5,1852.1,2595.2,177.6,74.7,19.8
0.079000,897.2,52.9,1862.9,151.9,2645.2,177.7,919.1,1841.3,2591.8,177.7,74.7,20.1
0.081000,901.2,54.0,1854.7,160.8,2649.0,179.8,921.2,1830.7,2589.1,177.8,74.7,20.1
0.083000,906.5,54.6,1842.3,172.6,2650.5,182.5,922.8,1820.2,2587.1,178,74.6,20
0.085000,911.3,54.6,1827.1,182.1,2647.9,187.0,923.9,1809.8,2585.9,178.1,74.6,19.6
0.087000,915.0,54.4,1810.3,189.1,2641.9,198.1,924.7,1799.5,2585.4,178.2,74.5,18.9
0.089000,917.6,54.6,1792.3,197.2,2633.2,219.9,925.2,1789.3,2585.6,178.4,74.5,17.8
0.091000,920.0,55.6,1772.5,208.8,2619.7,257.3,925.4,1779.1,2586.5,178.6,74.4,16.6
0.093000,922.5,57.0,1755.0,222.1,2599.3,308.5,925.5,1769.1,2588,178.7,74.4,15.6
0.095000,924.3,58.4,1743.0,237.5,2576.8,361.5,925.4,1759.1,2590,178.9,74.3,15.1
0.097000,925.0,60.0,1736.3,263.3,2561.3,410.5,925.3,1749.1,2592.5,179.1,74.2,15.2
0.099000,924.8,63.4,1735.7,309.3,2558.7,448.4,925.3,1739.1,2595.4,179.3,74,15.7
0.101000,925.8,69.4,1741.7,368.0,2564.9,470.5,925.3,1729.2,2598.8,179.5,73.8,16.5
0.103000,930.0,76.5,1751.1,405.1,2576.2,474.3,925.5,1719.3,2602.4,179.7,73.7,17.2
0.105000,935.8,80.9,1753.4,400.1,2587.4,463.4,925.9,1709.5,2606.2,179.9,73.5,17.7
0.107000,939.6,81.6,1744.7,382.1,2592.1,449.7,926.5,1699.7,2610.2,180.2,73.5,18
0.109000,940.8,81.1,1726.4,370.2,2588.5,438.6,927.3,1690,2614.2,180.4,73.4,18.1
0.111000,940.3,81.9,1702.6,371.5,2579.6,427.2,928.4,1680.3,2618.3,180.6,73.3,18.1
0.113000,940.2,83.2,1677.1,377.8,2573.5,397.8,929.8,1670.8,2622.3,180.9,73.3,18.1
0.115000,941.3,82.4,1649.5,375.8,2574.3,340.4,931.4,1661.4,2626.2,181.1,73.2,18.3
0.117000,942.8,79.6,1623.1,366.2,2583.0,283.2,933.4,1652.1,2630,181.4,73.2,18.6
0.119000,943.7,76.6,1602.4,348.2,2598.1,244.9,935.6,1643.1,2633.5,181.6,73.1,19.1
0.121000,943.9,75.0,1589.5,315.6,2621.3,223.6,938,1634.4,2636.7,181.9,73.1,19.5
0.123000,944.6,75.5,1585.6,274.7,2648.2,218.6,940.7,1625.9,2639.7,182.2,73,19.7
0.125000,946.4,76.8,1586.5,238.7,2670.4,228.3,943.5,1617.9,2642.3,182.5,73,19.6
0.127000,948.7,77.4,1587.1,217.4,2682.8,253.6,946.5,1610.2,2644.6,182.7,73.1,18.8
0.129000,950.4,77.3,1584.9,210.6,2684.8,295.0,949.6,1602.9,2646.5,183,73.1,17.4
0.131000,951.4,77.4,1580.7,215.5,2674.3,330.6,952.7,1596.2,2648.1,183.3,73.2,16
0.133000,953.1,77.9,1578.3,221.7,2660.2,328.6,955.8,1590,2649.4,183.6,73.2,14.8
0.135000,956.8,77.3,1581.5,220.2,2653.5,304.3,958.9,1584.3,2650.3,183.9,73.3,14.2
0.137000,961.5,74.5,1586.7,209.5,2652.8,292.8,961.9,1579.3,2650.9,184.2,73.4,14.7
0.139000,964.9,70.5,1587.0,194.4,2651.0,305.1,964.7,1574.9,2651.3,184.5,73.5,15.9
0.141000,966.5,66.7,1580.1,177.5,2644.8,337.2,967.4,1571.3,2651.4,184.8,73.6,17.3
0.143000,966.8,63.7,1570.0,161.0,2639.1,362.1,969.8,1568.3,2651.4,185.2,73.6,18.6
0.145000,967.0,61.2,1562.9,145.7,2644.1,352.1,972.1,1566,2651.3,185.5,73.6,19.2
0.147000,967.5,59.3,1560.2,133.1,2658.8,325.1,974,1564.4,2651.1,185.8,73.6,19.1
0.149000,968.7,58.4,1560.7,124.6,2673.9,308.3,975.7,1563.5,2650.9,186.1,73.5,18.5
0.151000,970.6,58.7,1563.4,121.1,2684.0,313.4,977,1563.4,2650.8,186.4,73.5,17.6
0.153000,972.9,60.0,1569.3,123.3,2686.5,341.5,978.1,1563.9,2650.8,186.8,73.5,16.8
0.155000,974.4,61.0,1577.8,128.2,2677.2,373.3,978.8,1565.1,2651.1,187.1,73.5,16.5
0.157000,974.4,61.0,1586.3,131.8,2661.0,383.7,979.3,1566.9,2651.6,187.4,73.6,16.7
0.159000,973.6,60.9,1593.2,131.7,2646.8,369.3,979.4,1569.4,2652.4,187.7,73.6,17.3
0.161000,973.4,61.1,1597.3,127.9,2639.9,343.6,979.3,1572.4,2653.6,188,73.7,18
0.163000,974.4,61.0,1599.8,123.1,2638.6,317.5,979,1576,2655.3,188.4,73.7,18.5
0.165000,975.7,59.8,1602.9,118.4,2640.0,288.3,978.4,1580,2657.5,188.7,73.7,18.8
0.167000,976.1,57.7,1606.9,112.2,2644.2,252.6,977.7,1584.5,2660.1,189,73.7,18.7
0.169000,975.2,56.4,1610.3,103.8,2653.0,215.3,976.8,1589.3,2663.4,189.3,73.7,18.3
0.171000,974.0,57.0,1611.6,97.2,2665.9,190.9,975.8,1594.4,2667.2,189.7,73.7,17.8
0.173000,973.3,58.0,1610.8,94.7,2681.5,184.5,974.7,1599.8,2671.7,190,73.8,17.3
0.175000,973.2,56.8,1609.7,95.3,2694.5,197.0,973.6,1605.3,2676.7,190.3,73.8,16.7
0.177000,973.4,53.3,1610.6,95.2,2700.2,225.8,972.5,1611,2682.4,190.6,73.9,16.2
0.179000,973.3,49.8,1614.4,92.6,2697.9,271.0,971.4,1616.8,2688.6,190.9,73.9,15.5
0.181000,973.4,48.5,1619.4,90.5,2695.5,316.6,970.3,1622.5,2695.4,191.2,74,14.8
0.183000,974.0,48.5,1622.7,90.8,2702.7,336.6,969.3,1628.3,2702.7,191.5,74,14.3
0.185000,975.0,47.7,1623.7,93.2,2713.8,332.8,968.5,1634,2710.5,191.8,74.1,14.1
0.187000,975.3,45.1,1622.0,98.1,2718.0,324.9,967.8,1639.5,2718.6,192.1,74.2,14.4
0.189000,973.9,42.6,1619.1,106.0,2712.1,324.6,967.2,1644.9,2727.1,192.4,74.2,15.1
0.191000,971.5,41.5,1616.6,118.0,2702.1,332.6,966.7,1650.1,2735.9,192.7,74.3,15.9
0.193000,969.4,42.3,1616.5,131.5,2701.2,345.1,966.4,1655.1,2744.9,193,74.3,16.6
0.195000,968.9,44.0,1619.7,143.4,2714.6,360.2,966.2,1659.8,2754,193.3,74.2,17
0.197000,969.6,45.5,1627.9,151.7,2741.5,382.0,966.2,1664.2,2763.1,193.5,74.1,17
0.199000,970.6,45.7,1641.0,150.0,2774.4,411.0,966.3,1668.4,2772.1,193.8,73.9,16.8
0.201000,971.4,44.3,1654.8,138.5,2800.7,446.0,966.5,1672.2,2781,194,73.7,16.4
0.203000,972.5,43.2,1666.2,127.3,2807.9,487.4,966.9,1675.8,2789.5,194.3,73.5,16.1
0.205000,974.5,44.2,1674.8,126.9,2796.0,506.6,967.3,1679,2797.7,194.5,73.3,16.1
0.207000,977.3,46.7,1683.3,133.8,2790.6,468.8,967.7,1681.9,2805.5,194.7,73.1,16.3
0.209000,979.5,48.9,1692.1,138.9,2800.0,403.0,968.2,1684.5,2812.7,194.9,72.8,16.7
0.211000,980.1,50.7,1699.4,139.9,2817.0,341.5,968.7,1686.7,2819.3,195.1,72.6,17.1
0.213000,978.4,52.7,1702.2,139.2,2835.1,296.7,969.2,1688.7,2825.1,195.3,72.3,17.5
0.215000,974.5,57.0,1701.9,142.7,2848.5,274.7,969.6,1690.3,2830.2,195.5,72.1,17.7
0.217000,969.1,66.8,1702.7,155.2,2853.6,280.7,970,1691.7,2834.4,195.7,71.7,17.7
0.219000,962.9,81.6,1706.7,173.2,2849.2,309.3,970.4,1692.7,2837.8,195.8,71.4,17.5
0.221000,956.4,97.3,1712.2,186.5,2843.2,330.5,970.6,1693.5,2840.2,196,71.1,17.2
0.223000,948.3,112.0,1718.0,190.7,2846.3,319.7,970.8,1693.9,2841.7,196.1,70.8,16.8
0.225000,938.1,126.6,1724.0,189.8,2858.4,290.6,970.8,1694,2842.2,196.2,70.5,16.2
