time,f1,b1,f2,b2,f3,b3,f1p,f2p,f3p,f0,intensity,harmonicity
0.026000,373.5,46.8,1464.8,180.8,2577.1,492.5,372.1,1540.7,2686.7,185.7,74.2,19.4
0.028000,372.6,41.8,1536.2,172.1,2621.6,461.3,372.1,1559.8,2683.4,185.7,74.2,20.5
0.030000,372.4,39.9,1594.8,175.5,2656.2,445.6,372.1,1591,2678,185.8,74.2,21.5
0.032000,372.6,38.7,1648.8,190.7,2680.5,439.5,372.1,1633.3,2670.7,185.9,74.2,22.5
0.034000,372.7,36.4,1704.6,216.8,2694.4,434.2,372.1,1685.6,2661.9,186,74.2,23.2
0.036000,372.6,33.1,1760.2,250.1,2699.3,422.8,372.1,1746.4,2651.9,186.1,74.3,23.8
0.038000,372.0,29.4,1818.3,290.9,2698.7,400.5,372.1,1814,2641,186.2,74.3,24.3
0.040000,371.1,26.3,1879.7,342.4,2692.9,371.4,372,1886.6,2629.7,186.3,74.3,24.7
0.042000,370.3,24.2,1944.8,408.1,2680.8,346.8,371.9,1962.2,2618.4,186.4,74.3,24.9
0.044000,369.8,22.7,2014.4,484.7,2663.8,338.0,371.9,2038.9,2607.6,186.5,74.3,24.9
0.046000,370.0,21.6,2091.6,568.5,2644.0,357.6,371.8,2114.8,2597.5,186.6,74.4,24.7
0.048000,370.9,20.8,2186.1,669.8,2612.8,411.9,371.7,2188.1,2588.6,186.8,74.4,24.2
0.050000,372.0,20.2,2323.6,817.2,2543.8,464.0,371.5,2257.3,2581.1,186.9,74.5,23.4
0.052000,372.6,19.4,2451.7,1086.8,2484.3,367.7,371.5,2321,2575.2,187,74.5,22.6
0.054000,372.5,18.8,2479.4,304.4,2503.5,1190.6,371.4,2378,2571,187.2,74.6,22.1
0.056000,372.0,18.3,2480.0,269.8,2524.5,1154.9,371.4,2427.6,2568.6,187.3,74.6,21.9
0.058000,371.4,18.2,2479.5,237.8,2540.6,1101.4,371.4,2469,2568,187.5,74.6,22.1
0.060000,371.0,18.6,2477.6,204.8,2567.8,1085.8,371.5,2502.1,2569,187.6,74.6,22.5
0.062000,371.1,18.9,2478.4,178.6,2584.7,1105.9,371.7,2526.9,2571.4,187.8,74.6,23
0.064000,371.7,18.4,2483.7,164.1,2572.1,1141.7,372,2543.5,2575,188,74.6,23.6
0.066000,372.6,17.4,2491.6,161.6,2543.5,1160.8,372.4,2552.5,2579.4,188.1,74.6,24.4
0.068000,373.5,16.6,2496.8,161.0,2529.9,1201.2,372.9,2554.5,2584.4,188.3,74.7,25.6
0.070000,374.4,16.6,2493.1,149.8,2553.4,1340.1,373.5,2550.3,2589.5,188.5,74.7,26.9
0.072000,375.2,17.3,2483.7,133.5,2607.3,1544.2,374.3,2540.6,2594.3,188.7,74.7,28.1
0.074000,375.9,17.7,2476.5,131.5,2659.4,1585.6,375.1,2526.4,2598.7,188.9,74.8,28.9
0.076000,376.6,17.3,2473.0,150.6,2685.8,1371.8,376.1,2508.6,2602.1,189.1,74.8,29.2
0.078000,377.2,16.8,2469.7,179.1,2685.6,1131.0,377.1,2488,2604.4,189.3,74.9,28.8
0.080000,378.1,16.6,2465.6,193.1,2676.2,1033.4,378.2,2465.3,2605.5,189.4,74.9,28.1
0.082000,379.1,16.9,2461.5,187.5,2662.2,1060.7,379.3,2441.1,2605,189.6,74.9,27.3
0.084000,380.2,17.6,2456.5,178.7,2637.0,1125.5,380.5,2416,2603,189.8,74.9,26.6
0.086000,381.3,18.5,2450.9,180.2,2601.9,1151.8,381.7,2390.3,2599.5,190,74.9,26.1
0.088000,382.4,19.6,2447.0,192.3,2563.3,1141.3,382.9,2364.3,2594.6,190.2,75,25.7
0.090000,383.6,20.9,2448.0,207.6,2511.3,1142.5,384.1,2338,2588.4,190.4,75,25.3
0.092000,384.9,22.1,2437.3,1148.9,2455.9,223.2,385.3,2311.5,2581.2,190.5,74.9,25.1
0.094000,386.2,23.0,2347.2,1089.4,2473.9,249.4,386.5,2284.5,2573.3,190.7,74.9,24.9
0.096000,387.5,23.8,2262.8,955.5,2507.9,288.0,387.7,2256.9,2564.9,190.8,74.9,24.8
0.098000,388.9,25.3,2198.5,822.7,2549.6,321.3,389,2228.5,2556.5,191,74.8,24.9
0.100000,390.2,27.5,2141.5,708.0,2580.2,335.5,390.3,2199,2548.4,191.1,74.7,25.1
0.102000,391.5,30.3,2087.9,618.0,2583.6,333.7,391.8,2168,2541,191.3,74.6,25.3
0.104000,392.8,34.6,2051.7,563.9,2567.1,340.3,393.4,2135.5,2534.7,191.4,74.5,25.5
0.106000,394.6,40.9,2030.4,536.8,2551.8,361.4,395.3,2101.2,2529.7,191.5,74.3,25.4
0.108000,396.9,48.6,2013.3,526.7,2546.6,392.7,397.4,2065,2526.3,191.6,74.2,25.2
0.110000,399.4,57.6,1994.2,537.4,2543.7,438.5,399.8,2026.9,2524.9,191.7,74,25
0.112000,402.2,68.8,1975.9,571.8,2529.7,518.4,402.5,1987.1,2525.6,191.7,73.8,24.6
0.114000,405.6,86.0,1961.3,603.1,2502.0,669.7,405.7,1945.6,2528.4,191.8,73.6,24.3
0.116000,409.9,109.6,1932.5,564.2,2499.6,884.7,409.2,1902.7,2533.5,191.8,73.5,24.1
0.118000,414.6,132.8,1868.7,476.4,2558.7,1002.9,413.2,1858.8,2540.9,191.9,73.4,23.9
0.120000,419.5,150.4,1805.7,394.8,2621.3,1001.7,417.7,1814.3,2550.3,191.9,73.2,23.7
0.122000,424.8,163.8,1760.4,332.9,2651.3,1027.4,422.6,1769.6,2561.8,191.9,73.1,23.5
0.124000,430.6,174.7,1729.0,287.3,2650.4,1156.5,427.9,1725.1,2575,191.9,73,23.1
0.126000,436.7,182.6,1704.9,252.9,2620.5,1365.3,433.6,1681.4,2589.7,191.9,72.9,22.7
0.128000,442.4,185.7,1678.4,230.9,2570.1,1484.7,439.6,1638.9,2605.7,191.9,72.9,22
0.130000,446.9,180.4,1636.6,219.0,2540.4,1301.4,445.8,1598.1,2622.4,191.8,72.8,21.2
0.132000,450.4,167.7,1584.4,199.4,2558.9,963.7,452.2,1559.4,2639.7,191.8,72.7,20.5
0.134000,454.4,155.7,1537.8,171.1,2598.9,710.8,458.5,1523.1,2657.2,191.7,72.7,19.9
0.136000,459.5,147.8,1503.0,149.0,2637.2,584.9,464.8,1489.6,2674.3,191.7,72.7,19.6
0.138000,465.4,141.8,1475.5,136.0,2664.6,543.9,470.9,1459.2,2690.9,191.6,72.7,19.5
0.140000,471.9,138.4,1450.3,131.0,2684.4,545.7,476.6,1432.1,2706.4,191.5,72.7,19.5
0.142000,478.7,140.1,1424.3,133.1,2702.6,560.5,481.9,1408.4,2720.6,191.5,72.7,19.6
0.144000,485.1,146.7,1396.4,138.4,2718.5,574.9,486.6,1388.2,2733.2,191.4,72.7,19.7
0.146000,490.4,154.4,1368.5,138.9,2732.8,588.2,490.6,1371.6,2743.9,191.3,72.8,19.7
0.148000,494.7,158.4,1343.4,129.0,2753.3,590.7,493.8,1358.7,2752.5,191.2,72.9,19.7
0.150000,498.2,156.4,1324.5,112.7,2783.5,550.0,496.2,1349.4,2758.7,191.2,73,19.7
0.152000,501.6,152.1,1310.0,97.4,2817.1,459.8,497.6,1343.9,2762.5,191.1,73,19.6
0.154000,505.4,152.6,1298.5,88.5,2845.3,371.0,498.1,1342,2763.8,191,73.1,19.6
