time,f1,b1,f2,b2,f3,b3,f1p,f2p,f3p,f0,intensity,harmonicity
0.026000,467.6,382.6,1548.9,516.1,2579.5,526.1,537.2,1529.5,2633.3,174.4,74.1,25.6
0.028000,479.2,381.0,1546.6,490.7,2606.5,570.5,537.5,1530,2632.3,174.5,74.1,26.8
0.030000,496.2,374.1,1533.6,427.5,2645.1,528.3,538,1531,2630.8,174.6,74.2,27.8
0.032000,509.0,368.3,1512.4,377.8,2664.3,434.7,538.7,1532.3,2628.7,174.7,74.2,28.6
0.034000,519.4,361.7,1497.1,342.9,2662.6,357.1,539.6,1534,2626,174.8,74.2,29
0.036000,532.8,345.3,1496.0,309.6,2650.0,314.4,540.6,1536,2622.8,174.9,74.2,29.1
0.038000,547.2,322.6,1508.0,273.0,2633.0,308.0,541.8,1538.4,2619.1,175,74.2,28.6
0.040000,560.2,301.2,1527.9,227.3,2615.1,334.3,543.2,1541,2615,175.1,74.2,27.8
0.042000,572.3,284.9,1547.5,176.4,2599.3,376.5,544.8,1543.9,2610.5,175.3,74.2,26.8
0.044000,582.8,269.9,1561.7,133.2,2584.6,403.9,546.4,1547.1,2605.6,175.4,74.2,26.1
0.046000,587.6,255.9,1571.5,104.8,2571.8,399.2,548.2,1550.4,2600.5,175.6,74.2,25.7
0.048000,584.0,249.2,1580.3,89.1,2564.5,378.2,550.1,1553.9,2595.2,175.7,74.1,25.5
0.050000,572.4,258.0,1588.2,87.6,2568.2,368.0,552,1557.6,2589.8,175.9,74.1,25.4
0.052000,559.9,277.1,1594.0,98.8,2579.2,370.7,554,1561.4,2584.3,176.1,74,25.4
0.054000,556.0,288.4,1594.0,116.6,2583.4,359.4,556.1,1565.3,2578.8,176.2,74,25.4
0.056000,561.4,284.1,1585.9,129.3,2575.0,315.0,558.2,1569.2,2573.4,176.4,74,25.4
0.058000,568.5,272.9,1575.9,126.3,2564.0,254.5,560.2,1573.1,2568.2,176.6,73.9,25.3
0.060000,574.5,263.5,1572.4,111.4,2555.9,206.3,562.3,1577,2563.1,176.8,73.9,25.2
0.062000,581.1,258.5,1575.5,96.3,2551.8,181.6,564.3,1580.9,2558.2,176.9,73.9,25.1
0.064000,589.5,256.1,1581.0,86.7,2551.1,178.7,566.3,1584.7,2553.7,177.1,73.9,25.1
0.066000,599.8,253.4,1587.1,81.1,2551.4,191.5,568.2,1588.3,2549.5,177.3,73.8,25.3
0.068000,607.3,254.6,1592.6,80.0,2552.2,210.6,570,1591.9,2545.8,177.5,73.8,25.6
0.070000,607.4,265.4,1596.6,83.5,2558.7,220.1,571.7,1595.3,2542.4,177.7,73.8,26
0.072000,599.0,284.7,1597.1,91.4,2573.4,215.3,573.3,1598.6,2539.6,177.8,73.7,26.4
0.074000,586.0,304.0,1593.6,102.2,2590.5,208.5,574.7,1601.7,2537.2,178,73.7,26.8
0.076000,577.0,308.9,1588.5,110.9,2601.9,211.6,576,1604.6,2535.3,178.2,73.6,26.9
0.078000,575.1,299.3,1586.0,114.3,2602.6,237.2,577.1,1607.3,2533.9,178.4,73.6,27.1
0.080000,573.8,295.1,1588.0,116.4,2588.6,295.2,578,1609.8,2533,178.6,73.5,27.1
0.082000,568.8,307.8,1592.0,123.6,2558.7,366.1,578.7,1612.2,2532.6,178.8,73.5,27.1
0.084000,562.6,327.2,1595.1,137.0,2529.2,406.9,579.2,1614.3,2532.7,179,73.5,27
0.086000,559.3,341.9,1599.9,156.8,2512.3,423.9,579.5,1616.3,2533.2,179.2,73.4,26.7
0.088000,560.5,342.5,1610.5,174.7,2506.5,432.4,579.6,1618.1,2534.2,179.4,73.4,26.2
0.090000,563.2,323.7,1624.1,171.2,2501.0,415.9,579.4,1619.8,2535.5,179.6,73.4,25.5
0.092000,561.0,298.5,1632.3,141.8,2489.6,367.7,579,1621.3,2537.2,179.8,73.4,24.9
0.094000,553.5,283.6,1633.9,109.5,2477.6,317.9,578.4,1622.7,2539.2,180,73.4,24.5
0.096000,546.8,280.4,1632.6,89.0,2472.0,291.7,577.6,1623.9,2541.4,180.1,73.4,24.5
0.098000,545.0,284.5,1629.9,80.7,2470.7,295.5,576.5,1625.1,2543.8,180.3,73.3,24.8
0.100000,546.9,294.4,1626.7,80.5,2474.3,327.4,575.2,1626.3,2546.4,180.5,73.3,25.3
0.102000,548.8,309.9,1625.0,83.0,2498.0,370.4,573.7,1627.3,2549,180.7,73.3,25.9
0.104000,550.4,327.0,1625.7,82.6,2553.6,390.1,572,1628.4,2551.7,180.9,73.2,26.3
0.106000,553.3,335.2,1627.3,77.7,2605.3,365.7,570.1,1629.4,2554.3,181.1,73.2,26.4
0.108000,560.3,324.0,1628.8,69.0,2622.1,332.2,568,1630.4,2556.8,181.3,73.2,26.3
0.110000,567.8,299.7,1630.7,59.8,2608.8,322.1,565.7,1631.5,2559.1,181.5,73.1,26
0.112000,569.2,286.4,1633.9,55.6,2574.3,337.4,563.3,1632.6,2561.3,181.6,73.1,25.7
0.114000,564.6,292.1,1638.0,57.2,2533.2,333.2,560.7,1633.8,2563.2,181.8,73,25.5
0.116000,559.5,304.8,1642.0,60.7,2515.8,289.6,558,1635,2564.8,182,72.9,25.5
0.118000,557.1,315.3,1645.6,64.2,2523.7,251.2,555.2,1636.3,2566.1,182.1,72.9,25.7
0.120000,559.2,317.4,1648.8,66.5,2544.0,233.2,552.3,1637.7,2567,182.3,72.8,26
0.122000,564.7,310.8,1651.1,66.0,2566.7,230.0,549.3,1639.2,2567.6,182.4,72.8,26.4
0.124000,569.5,305.1,1652.5,62.3,2587.3,239.7,546.2,1640.8,2567.7,182.5,72.7,26.7
0.126000,569.0,313.1,1653.6,57.7,2603.4,261.2,543.1,1642.4,2567.4,182.7,72.6,26.8
0.128000,563.0,331.9,1654.7,53.8,2618.9,282.8,539.9,1644.2,2566.6,182.8,72.6,27
0.130000,555.0,346.2,1655.3,50.4,2634.0,288.2,536.7,1646,2565.5,182.9,72.5,27.1
0.132000,549.8,346.3,1654.8,47.7,2642.8,279.8,533.6,1647.9,2563.9,183,72.5,27.2
0.134000,547.9,334.7,1653.2,45.8,2642.8,273.3,530.4,1649.8,2561.9,183.1,72.4,27.3
0.136000,547.7,318.6,1651.1,44.7,2634.4,275.8,527.3,1651.8,2559.5,183.2,72.4,27.4
0.138000,546.2,305.8,1649.5,44.9,2617.0,289.7,524.2,1653.8,2556.7,183.3,72.3,27.6
0.140000,540.9,302.4,1649.8,47.9,2585.5,318.8,521.2,1655.8,2553.6,183.4,72.3,27.8
0.142000,530.2,309.4,1652.6,55.2,2540.7,360.9,518.3,1657.8,2550.2,183.4,72.3,28
0.144000,511.0,322.1,1657.8,68.3,2491.9,410.2,515.4,1659.8,2546.6,183.5,72.2,28.1
0.146000,490.9,327.5,1663.4,81.6,2459.9,438.0,512.6,1661.7,2542.8,183.6,72.2,28.2
0.148000,478.9,324.6,1667.1,88.0,2450.1,432.1,510,1663.5,2538.8,183.7,72.2,28.3
0.150000,474.6,319.2,1668.0,87.8,2455.1,409.5,507.4,1665.3,2534.6,183.7,72.1,28.4
0.152000,477.5,312.6,1666.4,84.0,2466.8,380.6,504.9,1666.9,2530.5,183.8,72.1,28.4
0.154000,488.1,302.2,1662.5,78.4,2480.6,342.4,502.6,1668.5,2526.3,183.9,72.1,28.3
0.156000,503.4,284.1,1658.2,71.5,2494.2,293.4,500.4,1669.8,2522.1,183.9,72,28
0.158000,514.0,266.5,1657.1,66.1,2508.2,249.9,498.3,1671,2518.1,184,72,27.6
0.160000,515.5,261.6,1660.4,63.9,2520.5,229.9,496.3,1672.1,2514.1,184.1,72,27.1
0.162000,510.0,267.5,1665.5,64.0,2531.5,234.7,494.4,1672.9,2510.4,184.1,71.9,26.6
0.164000,500.0,277.9,1669.6,65.3,2542.9,265.1,492.6,1673.6,2506.9,184.2,71.9,26.2
0.166000,488.8,287.2,1672.1,67.3,2554.8,315.1,490.9,1674.1,2503.6,184.3,71.9,26
0.168000,479.2,290.6,1673.1,69.1,2559.8,362.1,489.3,1674.4,2500.6,184.4,71.8,26
0.170000,473.2,286.1,1672.0,71.0,2547.9,376.1,487.8,1674.5,2498,184.5,71.8,26.1
0.172000,471.5,275.5,1667.9,73.1,2519.8,352.1,486.4,1674.5,2495.6,184.6,71.8,26.2
0.174000,473.8,263.0,1662.0,74.2,2489.0,310.3,485,1674.3,2493.7,184.8,71.8,26.2
0.176000,478.9,251.9,1657.1,73.4,2465.5,272.4,483.7,1673.9,2492,184.9,71.7,26.2
0.178000,485.2,242.5,1655.6,71.3,2448.4,249.9,482.4,1673.5,2490.8,185,71.7,26
0.180000,491.3,234.2,1657.3,69.4,2435.4,244.2,481.2,1672.9,2489.9,185.1,71.6,25.8
0.182000,495.4,229.3,1660.6,69.0,2430.1,253.0,480,1672.2,2489.3,185.3,71.6,25.6
0.184000,494.2,233.0,1663.8,70.5,2443.1,275.0,478.7,1671.5,2489.1,185.4,71.5,25.4
0.186000,485.4,244.2,1666.1,71.9,2472.3,305.3,477.5,1670.8,2489.1,185.6,71.5,25.3
0.188000,472.3,252.1,1668.3,70.8,2499.9,330.3,476.2,1670.1,2489.5,185.7,71.4,25.1
0.190000,463.8,252.3,1671.6,66.2,2512.1,331.1,474.9,1669.4,2490,185.9,71.3,24.9
0.192000,463.6,250.7,1676.0,59.5,2509.6,300.2,473.6,1668.8,2490.8,186.1,71.2,24.8
0.194000,469.1,248.8,1680.1,52.7,2498.6,251.7,472.2,1668.3,2491.8,186.2,71.2,24.8
0.196000,474.3,246.0,1682.7,47.3,2484.6,210.8,470.7,1668,2492.9,186.4,71.1,24.9
0.198000,474.3,244.0,1684.0,44.1,2474.0,188.8,469.1,1667.9,2494,186.6,71,25.1
0.200000,468.9,243.0,1685.2,42.9,2476.4,181.5,467.4,1667.9,2495.2,186.7,70.9,25.5
0.202000,460.8,241.3,1686.8,43.2,2497.5,175.8,465.6,1668.3,2496.3,186.9,70.8,25.8
0.204000,452.9,239.3,1688.4,45.2,2526.9,162.7,463.7,1668.9,2497.4,187,70.7,26.1
0.206000,445.3,237.1,1690.3,49.0,2549.0,146.6,461.7,1669.8,2498.4,187.2,70.7,26.3
0.208000,439.9,233.7,1692.6,53.7,2558.0,134.1,459.6,1671,2499.2,187.3,70.6,26.3
0.210000,438.0,228.4,1694.8,57.2,2554.6,127.4,457.4,1672.6,2499.8,187.5,70.5,26.3
0.212000,439.7,221.1,1696.1,58.9,2541.5,127.7,455,1674.6,2500.2,187.6,70.4,26.2
0.214000,442.6,213.1,1696.5,59.6,2523.8,134.5,452.5,1677,2500.2,187.7,70.4,26.2
0.216000,445.2,206.2,1696.7,60.3,2511.8,144.1,449.9,1679.7,2500,187.8,70.3,26.2
0.218000,447.4,201.7,1696.9,60.6,2512.6,150.6,447.2,1682.9,2499.5,187.9,70.3,26.3
0.220000,449.7,198.0,1697.2,59.9,2518.7,151.1,444.4,1686.4,2498.6,188,70.3,26.5
0.222000,452.2,194.4,1698.2,57.8,2517.1,144.0,441.5,1690.3,2497.3,188.1,70.2,26.6
0.224000,453.9,191.6,1699.9,54.9,2506.4,131.2,438.4,1694.6,2495.7,188.2,70.2,26.7
0.226000,455.0,189.4,1701.1,51.9,2493.2,117.2,435.4,1699.2,2493.7,188.2,70.1,26.8
0.228000,455.2,186.5,1700.8,50.4,2481.2,108.4,432.2,1704.2,2491.3,188.3,70.1,26.9
0.230000,453.5,183.2,1699.6,51.8,2469.0,108.4,429,1709.5,2488.6,188.3,70.1,26.9
0.232000,449.9,180.5,1699.1,55.9,2453.3,117.8,425.8,1715,2485.6,188.4,70,26.9
0.234000,444.1,179.1,1700.5,61.4,2436.1,135.2,422.5,1720.7,2482.2,188.4,70,26.9
0.236000,434.7,178.4,1704.0,66.3,2425.5,158.4,419.2,1726.7,2478.6,188.4,70,26.8
0.238000,422.6,174.8,1707.8,69.7,2427.2,181.3,416,1732.8,2474.7,188.4,70,26.5
0.240000,409.9,166.1,1710.1,72.6,2436.1,195.2,412.7,1738.9,2470.6,188.4,70,26.2
0.242000,400.1,155.3,1709.9,76.5,2442.8,187.7,409.6,1745.1,2466.3,188.4,70,25.9
0.244000,393.4,145.7,1707.3,83.0,2444.6,163.2,406.5,1751.3,2462,188.3,70.1,25.7
0.246000,389.5,139.4,1704.4,92.5,2444.6,137.3,403.5,1757.5,2457.6,188.3,70.1,25.6
0.248000,388.9,138.3,1705.8,103.3,2445.4,119.2,400.6,1763.5,2453.2,188.2,70.1,25.5
0.250000,391.2,141.6,1716.5,113.9,2447.8,112.2,397.8,1769.3,2448.8,188.2,70.2,25.6
0.252000,394.0,145.5,1737.1,123.7,2449.8,119.8,395.2,1774.9,2444.5,188.1,70.2,25.7
0.254000,395.4,146.9,1761.4,130.1,2446.7,144.1,392.7,1780.2,2440.4,188.1,70.3,25.9
0.256000,394.5,145.1,1780.8,133.5,2433.2,185.5,390.4,1785.2,2436.5,188,70.3,26.2
0.258000,390.7,139.2,1794.9,139.8,2403.4,253.1,388.3,1789.8,2432.9,187.9,70.4,27
0.260000,385.0,130.3,1806.0,150.9,2359.5,347.3,386.5,1794,2429.5,187.8,70.4,27.9
0.262000,380.2,121.8,1818.0,158.6,2318.2,455.5,384.8,1797.7,2426.5,187.7,70.4,28.6
0.264000,377.7,117.0,1830.2,151.9,2319.7,551.9,383.4,1800.9,2424,187.7,70.5,28.8
0.266000,376.8,115.3,1838.1,137.9,2377.0,598.7,382.2,1803.6,2421.8,187.6,70.5,28.2
0.268000,376.1,113.6,1843.0,129.5,2446.3,605.3,381.3,1805.7,2420.1,187.5,70.4,26.9
0.270000,375.7,111.8,1846.7,124.9,2504.8,604.3,380.6,1807.2,2418.8,187.4,70.3,25.1
0.272000,377.3,112.5,1850.4,116.0,2557.0,581.0,380.2,1808.1,2418.1,187.3,70.1,23
0.274000,381.3,116.6,1855.8,100.7,2617.8,529.8,380.1,1808.4,2417.8,187.2,69.7,20.8
