time,f1,b1,f2,b2,f3,b3,f1p,f2p,f3p,f0,intensity,harmonicity
0.025000,349.3,30.1,1604.3,61.8,1997.1,138.2,352.4,1608.4,2016,180.5,74.5,22.8
0.027000,350.6,28.8,1608.5,70.3,2006.8,137.9,352.8,1611.1,2018.5,180.9,74.6,22.6
0.029000,352.1,27.5,1613.6,78.6,2014.8,134.3,353.5,1615.6,2022.6,181.3,74.7,22.2
0.031000,353.8,26.4,1619.8,84.7,2020.1,129.8,354.5,1621.6,2028.3,181.7,74.7,21.7
0.033000,355.6,25.7,1627.6,87.3,2025.4,126.8,355.7,1629.2,2035.4,182.2,74.7,21.3
0.035000,357.6,25.5,1638.3,86.8,2036.3,124.4,357.1,1638.1,2044,182.6,74.7,21.1
0.037000,359.7,25.6,1650.7,84.5,2055.5,120.0,358.7,1648.1,2053.9,183.2,74.7,21.2
0.039000,361.8,25.7,1662.7,82.5,2078.2,113.0,360.5,1659,2064.9,183.7,74.7,21.5
0.041000,364.1,25.9,1673.3,81.4,2097.4,105.8,362.5,1670.6,2076.9,184.3,74.7,21.9
0.043000,366.3,26.0,1683.1,82.5,2110.3,103.8,364.6,1682.5,2089.8,184.8,74.7,22.3
0.045000,368.3,25.8,1693.3,87.7,2118.1,110.6,366.7,1694.7,2103.4,185.5,74.6,22.5
0.047000,370.3,25.6,1704.8,96.6,2125.9,124.1,369,1706.8,2117.6,186.1,74.6,22.5
0.049000,372.4,25.8,1717.6,106.4,2139.5,137.6,371.3,1718.7,2132.1,186.7,74.5,22.5
0.051000,374.5,26.4,1731.4,114.9,2158.3,144.8,373.6,1730.1,2146.9,187.4,74.5,22.4
0.053000,376.3,27.1,1745.2,120.2,2173.7,144.9,375.8,1740.8,2161.8,188,74.4,22.2
0.055000,378.1,28.1,1758.7,120.3,2183.5,140.0,378,1750.8,2176.6,188.7,74.4,21.9
0.057000,380.0,29.2,1768.6,115.6,2190.4,131.3,380.2,1759.9,2191.2,189.4,74.4,21.5
0.059000,382.1,30.2,1774.5,109.8,2198.7,120.2,382.3,1768.1,2205.5,190.1,74.4,21
0.061000,384.3,30.7,1778.0,104.7,2209.8,108.4,384.3,1775.2,2219.3,190.8,74.4,20.5
0.063000,386.3,30.4,1780.5,100.7,2223.3,97.9,386.1,1781.3,2232.6,191.5,74.5,20
0.065000,388.2,29.2,1782.1,98.0,2237.9,89.5,387.9,1786.5,2245.3,192.2,74.6,19.6
0.067000,389.8,27.7,1782.8,98.6,2251.3,84.5,389.5,1790.7,2257.3,192.8,74.8,19.4
0.069000,390.9,26.0,1783.9,104.8,2262.3,84.6,391,1794,2268.6,193.5,75,19.3
0.071000,391.5,24.4,1787.9,116.5,2271.8,89.0,392.3,1796.6,2279.1,194.2,75.3,19.2
0.073000,391.9,23.0,1794.0,129.0,2280.4,94.9,393.5,1798.5,2288.8,194.8,75.6,19.3
0.075000,392.5,22.0,1799.6,137.8,2288.5,100.1,394.6,1799.8,2297.7,195.4,75.9,19.5
0.077000,393.4,21.4,1802.1,135.5,2294.9,100.0,395.6,1800.7,2305.8,196,76.1,19.9
0.079000,394.5,21.3,1802.3,123.3,2301.6,93.8,396.5,1801.3,2313.1,196.6,76.4,20.4
0.081000,395.6,21.3,1801.8,111.5,2310.5,87.2,397.3,1801.7,2319.6,197.2,76.5,21.1
0.083000,396.7,21.5,1801.4,104.8,2321.7,83.6,398,1802,2325.4,197.7,76.6,21.8
0.085000,397.9,22.0,1801.1,102.2,2333.8,81.9,398.6,1802.3,2330.5,198.2,76.7,22.6
0.087000,399.4,22.7,1801.0,102.0,2344.5,80.8,399.2,1802.7,2334.9,198.7,76.7,23.4
0.089000,400.8,23.5,1801.5,104.1,2352.0,80.4,399.7,1803.1,2338.7,199.2,76.7,24.3
0.091000,401.9,24.1,1802.8,109.4,2356.1,81.5,400.1,1803.7,2341.9,199.6,76.6,25.2
0.093000,402.6,24.4,1805.1,119.0,2357.2,84.4,400.6,1804.5,2344.6,200,76.6,26.1
0.095000,402.9,24.5,1808.4,132.0,2356.5,88.0,401,1805.5,2346.8,200.4,76.5,26.9
0.097000,402.9,24.3,1812.6,145.4,2356.3,91.3,401.4,1806.7,2348.7,200.7,76.5,27.5
0.099000,403.0,23.9,1817.5,154.3,2358.1,94.4,401.8,1808,2350.2,201,76.5,28
0.101000,403.1,23.4,1821.3,154.7,2360.6,97.2,402.1,1809.5,2351.3,201.3,76.6,28.5
0.103000,403.5,23.0,1822.1,147.5,2361.1,99.9,402.5,1811,2352.2,201.6,76.6,28.9
0.105000,403.8,22.7,1820.3,138.2,2358.3,103.0,402.9,1812.7,2352.9,201.9,76.7,29.3
0.107000,404.1,22.4,1817.3,131.7,2352.8,105.7,403.2,1814.4,2353.4,202.1,76.8,29.6
0.109000,404.2,22.2,1813.8,128.4,2346.8,104.6,403.5,1816.2,2353.7,202.3,76.9,29.9
0.111000,404.2,22.0,1810.7,128.6,2343.4,101.1,403.9,1818.1,2354,202.4,77,30.2
0.113000,403.9,21.8,1809.1,134.5,2343.1,100.1,404.2,1820,2354.2,202.6,77,30.4
0.115000,403.5,21.4,1810.2,145.6,2344.0,104.1,404.4,1822,2354.3,202.7,77,30.5
0.117000,403.2,21.1,1813.2,156.4,2344.2,108.9,404.7,1824.2,2354.5,202.8,77,30.6
0.119000,403.2,21.1,1816.9,160.6,2344.0,108.8,404.9,1826.5,2354.6,202.9,77,30.6
0.121000,403.5,21.3,1821.0,157.9,2344.5,103.7,405.1,1829.1,2354.9,203,77,30.5
0.123000,403.9,21.6,1826.4,154.2,2346.8,98.9,405.2,1832,2355.1,203.1,76.9,30.5
0.125000,404.3,21.8,1833.4,156.0,2350.7,98.5,405.3,1835.3,2355.5,203.1,76.9,30.5
0.127000,404.4,21.7,1841.1,167.0,2355.4,104.9,405.3,1839.1,2356,203.1,76.9,30.6
0.129000,404.4,21.3,1847.8,187.2,2359.7,116.9,405.3,1843.5,2356.6,203.2,76.8,30.8
0.131000,404.4,20.8,1853.0,215.2,2362.9,130.7,405.2,1848.5,2357.4,203.2,76.8,31
0.133000,404.4,20.6,1857.0,245.3,2363.8,138.1,405,1854.2,2358.3,203.2,76.8,31.2
0.135000,404.4,20.5,1864.5,279.5,2364.1,140.6,404.8,1860.8,2359.3,203.1,76.8,31.3
0.137000,404.2,20.4,1878.5,315.3,2364.8,144.2,404.6,1868.1,2360.5,203.1,76.8,31.4
0.139000,404.0,20.4,1896.2,341.1,2367.2,150.1,404.2,1876.3,2361.8,203.1,76.7,31.4
0.141000,404.1,20.7,1909.2,349.9,2371.6,154.7,403.9,1885.2,2363.3,203,76.7,31.3
0.143000,404.3,21.4,1909.1,340.7,2375.8,151.8,403.5,1895,2364.9,202.9,76.6,31.2
0.145000,404.8,22.3,1901.6,320.1,2378.6,142.1,403,1905.4,2366.6,202.9,76.5,30.9
0.147000,404.9,23.1,1900.0,303.3,2379.2,136.1,402.6,1916.4,2368.3,202.8,76.4,30.4
0.149000,404.5,23.6,1907.6,295.4,2375.2,139.1,402.1,1927.9,2370.2,202.7,76.3,29.7
0.151000,403.7,23.7,1922.4,295.0,2366.9,149.7,401.6,1939.7,2372,202.6,76.1,28.9
0.153000,402.4,23.4,1940.8,302.9,2359.5,164.5,401.1,1951.7,2373.9,202.5,76,28
0.155000,401.1,22.9,1960.4,311.7,2359.1,178.6,400.6,1963.6,2375.8,202.3,75.8,27.2
0.157000,400.1,22.6,1976.4,309.8,2365.2,186.6,400.1,1975.2,2377.6,202.2,75.6,26.4
0.159000,399.4,22.7,1987.0,296.7,2374.2,188.5,399.6,1986.4,2379.3,202.1,75.3,25.8
0.161000,399.0,23.3,1994.6,280.6,2382.4,189.0,399.2,1996.8,2380.9,202,74.9,25.1
0.163000,398.6,24.1,2004.0,272.6,2387.4,196.8,398.8,2006.4,2382.3,201.8,74.4,24
0.165000,397.8,25.3,2018.9,275.9,2389.1,220.3,398.5,2014.9,2383.6,201.7,73.8,22.4
0.167000,396.9,26.9,2032.8,273.2,2388.0,247.9,398.2,2022.1,2384.7,201.6,72.9,20
0.169000,396.7,29.4,2036.2,251.3,2386.2,256.8,398,2027.9,2385.6,201.5,71.8,16.9
0.171000,397.2,33.2,2032.9,217.6,2384.7,249.1,397.8,2032.1,2386.2,201.3,70.5,13.5
0.173000,397.7,40.1,2031.3,190.2,2384.4,242.8,397.7,2034.6,2386.6,201.2,68.9,10.4
0.175000,396.8,54.4,2035.7,178.1,2388.8,255.0,397.7,2035.5,2386.7,201.1,67.1,8
