time,f1,b1,f2,b2,f3,b3,f1p,f2p,f3p,f0,intensity,harmonicity
0.026000,851.1,121.6,1941.6,387.3,2866.3,303.3,890.3,2023.7,2862.4,180.1,70.7,12.6
0.028000,858.6,109.6,1944.3,403.6,2836.2,311.2,890.5,2023,2861.8,180,70.6,13.8
0.030000,866.7,98.4,1959.9,394.1,2816.8,325.7,890.9,2021.8,2860.8,179.9,70.6,15.3
0.032000,875.3,91.5,1988.4,374.7,2820.8,352.4,891.4,2020.2,2859.3,179.8,70.6,16.8
0.034000,884.0,86.1,2019.1,350.2,2841.9,356.1,892,2018.1,2857.5,179.7,70.5,18
0.036000,892.1,80.5,2045.7,331.6,2862.8,329.1,892.7,2015.6,2855.3,179.6,70.6,18.6
0.038000,898.5,75.4,2062.9,324.1,2872.1,301.9,893.6,2012.7,2852.8,179.6,70.6,18.7
0.040000,903.8,70.8,2067.8,319.9,2871.4,289.0,894.6,2009.3,2849.9,179.5,70.7,18.6
0.042000,908.6,67.1,2059.9,310.0,2864.7,295.9,895.7,2005.6,2846.6,179.4,70.8,18.3
0.044000,912.3,64.3,2045.7,294.9,2857.1,326.7,897,2001.5,2843.1,179.3,70.9,18.2
0.046000,914.6,62.4,2032.9,282.1,2851.7,384.1,898.3,1997,2839.3,179.2,71,18.3
0.048000,915.2,61.8,2024.4,277.1,2849.6,451.2,899.8,1992.1,2835.3,179.1,71.1,18.6
0.050000,915.2,62.3,2016.1,279.9,2849.6,480.5,901.3,1987,2831,179,71.2,19
0.052000,915.4,62.6,2004.5,285.7,2847.7,448.8,902.9,1981.6,2826.5,179,71.3,19.4
0.054000,916.3,62.3,1990.8,288.2,2839.8,397.1,904.6,1975.9,2822,178.9,71.4,19.8
0.056000,917.7,61.1,1977.4,287.5,2823.2,360.5,906.4,1970.1,2817.3,178.8,71.5,20.2
0.058000,919.2,60.3,1965.3,296.8,2799.9,354.5,908.3,1964,2812.5,178.8,71.5,20.6
0.060000,920.6,61.5,1951.3,330.0,2777.5,374.5,910.2,1957.8,2807.7,178.7,71.6,21
0.062000,921.8,64.8,1931.4,378.6,2771.3,402.8,912.2,1951.4,2802.9,178.7,71.6,21.4
0.064000,922.8,67.8,1912.6,402.4,2788.0,426.8,914.2,1945,2798.2,178.7,71.7,21.8
0.066000,923.7,69.9,1906.1,387.4,2813.2,455.1,916.2,1938.5,2793.5,178.6,71.7,22.2
0.068000,924.9,72.2,1910.4,358.7,2826.7,484.1,918.3,1932.1,2789.1,178.6,71.7,22.7
0.070000,926.0,75.2,1913.5,345.5,2818.4,496.9,920.3,1925.7,2784.7,178.6,71.7,23.2
0.072000,926.6,79.1,1910.2,351.5,2794.4,490.0,922.4,1919.3,2780.7,178.6,71.7,23.6
0.074000,926.4,83.4,1904.7,373.1,2763.1,463.7,924.5,1913.1,2776.8,178.6,71.7,23.8
0.076000,925.8,86.4,1903.1,398.8,2737.3,419.6,926.5,1907,2773.3,178.6,71.7,23.7
0.078000,925.2,86.8,1903.6,410.7,2726.0,365.1,928.5,1901.1,2770.2,178.6,71.6,23.3
0.080000,925.1,83.5,1899.7,394.9,2732.4,315.1,930.5,1895.4,2767.4,178.7,71.6,22.8
0.082000,925.2,78.1,1887.9,361.0,2752.2,284.4,932.4,1890,2765,178.7,71.6,22.2
0.084000,925.3,72.3,1872.1,323.0,2779.3,270.7,934.3,1884.8,2763.1,178.7,71.6,21.6
0.086000,926.0,68.1,1862.5,294.3,2802.7,268.7,936.2,1880,2761.6,178.8,71.7,21.3
0.088000,927.9,67.1,1864.9,282.4,2811.0,274.7,937.9,1875.4,2760.6,178.8,71.7,21.1
0.090000,930.6,68.3,1872.3,280.0,2804.7,283.6,939.6,1871.3,2760.1,178.8,71.8,21
0.092000,933.6,70.2,1876.4,277.8,2790.3,294.4,941.3,1867.5,2760.1,178.9,71.8,21
0.094000,936.2,73.6,1874.5,276.8,2770.3,315.5,942.8,1864,2760.7,178.9,71.8,20.9
0.096000,937.7,78.2,1868.1,276.5,2750.0,355.3,944.3,1861,2761.7,179,71.9,20.8
0.098000,938.5,82.4,1861.0,270.1,2732.9,419.0,945.7,1858.3,2763.3,179,71.9,20.7
0.100000,939.8,83.7,1856.5,249.8,2723.6,484.4,947,1856,2765.4,179.1,71.9,20.6
0.102000,942.2,79.9,1854.4,215.9,2735.1,466.9,948.3,1854,2768,179.1,72,20.6
0.104000,945.1,73.9,1855.0,181.7,2763.7,370.3,949.4,1852.4,2771,179.2,72,20.5
0.106000,947.8,71.2,1858.1,162.4,2786.7,289.9,950.5,1851.2,2774.5,179.2,72.1,20.4
0.108000,949.8,72.2,1859.2,159.7,2791.3,258.6,951.6,1850.2,2778.3,179.3,72.1,20.3
0.110000,951.6,74.0,1856.1,165.9,2777.4,256.4,952.5,1849.5,2782.6,179.3,72.1,20.2
0.112000,953.1,76.4,1850.5,175.8,2751.3,270.5,953.4,1849.1,2787.1,179.4,72.1,20.2
0.114000,954.2,80.4,1848.2,181.2,2735.3,291.2,954.3,1848.8,2792,179.4,72.1,20.3
0.116000,955.4,85.9,1850.9,175.5,2745.6,304.6,955.1,1848.7,2797,179.5,72.1,20.6
0.118000,957.1,91.5,1854.9,163.8,2775.3,297.9,955.8,1848.8,2802.2,179.5,72.2,21.2
0.120000,958.9,94.1,1857.7,155.9,2805.9,274.8,956.5,1848.9,2807.6,179.5,72.2,22
0.122000,960.4,92.9,1859.4,153.4,2832.0,249.7,957.2,1849,2813,179.6,72.3,22.7
0.124000,961.2,89.7,1859.1,152.1,2850.6,236.1,957.9,1849.1,2818.3,179.6,72.3,23.3
0.126000,961.2,87.3,1855.1,145.5,2858.9,242.6,958.6,1849.1,2823.6,179.6,72.4,23.6
0.128000,960.9,87.9,1849.1,135.0,2854.9,271.6,959.2,1849,2828.8,179.7,72.4,23.8
0.130000,960.9,91.2,1843.9,128.7,2846.9,314.7,959.9,1848.8,2833.8,179.7,72.5,23.8
0.132000,961.3,95.5,1840.7,130.9,2852.2,345.4,960.6,1848.3,2838.5,179.7,72.5,23.7
0.134000,962.1,98.5,1839.2,139.1,2869.6,339.0,961.3,1847.6,2842.9,179.8,72.6,23.5
0.136000,963.5,99.9,1838.6,147.3,2878.6,309.5,962,1846.6,2847,179.8,72.6,23.2
0.138000,965.1,100.9,1838.7,149.2,2873.2,276.9,962.8,1845.2,2850.7,179.8,72.7,22.7
0.140000,967.1,102.5,1838.5,144.5,2862.3,251.8,963.6,1843.5,2853.9,179.8,72.7,22.1
0.142000,969.8,104.1,1836.9,138.9,2854.1,237.3,964.5,1841.5,2856.6,179.9,72.7,21.4
0.144000,972.7,105.5,1833.2,136.2,2849.5,236.3,965.3,1839,2858.8,179.9,72.8,20.9
0.146000,974.9,107.4,1828.8,136.1,2847.5,248.7,966.3,1836.1,2860.5,179.9,72.8,20.6
0.148000,976.4,111.1,1826.1,137.0,2848.0,270.2,967.2,1832.8,2861.6,179.9,72.8,20.6
0.150000,977.4,117.4,1825.6,138.7,2852.1,295.3,968.2,1829.2,2862.2,179.9,72.8,20.6
0.152000,978.4,125.0,1825.7,141.2,2856.9,316.9,969.2,1825.1,2862.2,179.9,72.8,20.6
0.154000,979.1,132.4,1824.1,144.0,2855.9,338.4,970.3,1820.6,2861.6,179.9,72.8,20.7
0.156000,979.1,139.8,1820.0,146.6,2846.5,367.4,971.3,1815.8,2860.5,179.9,72.7,20.7
0.158000,978.1,144.7,1814.8,147.1,2840.0,391.0,972.4,1810.7,2858.9,179.9,72.6,20.6
0.160000,977.1,143.4,1810.3,144.6,2851.4,387.6,973.5,1805.3,2856.8,179.9,72.6,20.5
0.162000,976.6,138.2,1806.9,144.4,2876.0,364.0,974.6,1799.7,2854.2,179.9,72.5,20.4
0.164000,976.0,135.6,1803.0,152.5,2897.5,353.2,975.6,1793.9,2851.2,179.8,72.5,20.4
0.166000,974.6,138.5,1796.0,166.5,2902.9,376.6,976.6,1788.1,2847.8,179.8,72.5,20.6
0.168000,972.6,145.6,1784.6,179.7,2889.1,427.0,977.6,1782.1,2844.1,179.8,72.4,20.9
0.170000,970.8,153.2,1771.1,185.4,2857.7,480.9,978.5,1776.2,2840.2,179.7,72.4,21.4
0.172000,970.1,157.4,1759.7,182.4,2820.0,517.6,979.3,1770.3,2836.1,179.7,72.3,21.8
0.174000,969.7,158.3,1751.2,175.4,2785.8,537.9,980.1,1764.7,2831.9,179.6,72.3,22
0.176000,969.2,157.2,1745.4,167.6,2766.1,536.8,980.7,1759.2,2827.6,179.6,72.3,21.8
0.178000,969.0,155.4,1741.6,161.7,2763.2,513.6,981.2,1754.1,2823.4,179.5,72.3,21.2
0.180000,969.3,154.6,1739.4,160.4,2769.3,489.8,981.6,1749.3,2819.2,179.4,72.3,20.4
0.182000,970.2,155.4,1738.4,164.9,2781.3,483.6,981.9,1745,2815.2,179.4,72.3,19.6
0.184000,971.6,156.1,1737.0,171.6,2794.0,488.2,982,1741.2,2811.5,179.3,72.3,19.1
0.186000,973.2,155.2,1734.9,176.4,2801.8,487.3,981.9,1738,2808,179.2,72.3,19.2
0.188000,974.5,153.1,1733.6,178.6,2801.8,472.2,981.7,1735.4,2804.9,179.1,72.4,19.9
0.190000,975.6,151.4,1735.5,178.0,2798.6,451.3,981.3,1733.5,2802.2,179,72.5,20.9
0.192000,976.5,150.8,1741.5,174.0,2800.2,437.3,980.6,1732.3,2800,178.9,72.6,21.9
0.194000,977.4,150.4,1749.6,164.4,2807.1,426.7,979.8,1731.9,2798.3,178.8,72.7,22.6
0.196000,978.5,146.0,1755.4,149.1,2811.3,403.3,978.8,1732.2,2797.2,178.6,72.8,22.6
0.198000,978.3,140.7,1759.0,137.5,2820.8,378.3,977.6,1733.4,2796.6,178.5,72.9,22.1
0.200000,976.1,138.5,1761.6,136.3,2837.8,369.1,976.3,1735.4,2796.6,178.4,73,21.2
0.202000,973.4,139.5,1763.8,142.7,2849.1,372.1,974.7,1738.2,2797.2,178.2,73,20.3
0.204000,971.5,143.3,1764.5,150.0,2844.1,374.1,973,1741.7,2798.4,178.1,73.1,19.7
0.206000,971.0,149.5,1762.7,153.9,2828.8,364.4,971,1746.1,2800.3,177.9,73.1,19.6
0.208000,971.7,155.8,1759.9,155.0,2815.9,344.7,969,1751.2,2802.7,177.8,73.2,19.9
0.210000,972.8,160.1,1758.0,158.2,2811.8,328.6,966.7,1757,2805.7,177.6,73.2,20.4
0.212000,973.0,163.6,1756.6,166.6,2811.6,319.9,964.4,1763.4,2809.3,177.5,73.3,21
0.214000,971.5,167.2,1755.2,179.0,2810.7,314.0,961.9,1770.4,2813.3,177.3,73.3,21.6
0.216000,969.0,171.1,1754.2,191.3,2808.0,308.1,959.4,1777.9,2817.8,177.2,73.4,22
0.218000,966.3,174.6,1755.8,201.1,2804.7,301.9,956.8,1785.8,2822.7,177,73.4,22.6
0.220000,963.9,176.0,1762.9,205.7,2803.1,295.6,954.1,1794.1,2827.9,176.8,73.5,23.1
0.222000,962.1,175.0,1774.5,204.1,2805.5,288.4,951.4,1802.6,2833.4,176.7,73.5,23.4
0.224000,960.6,172.4,1786.7,199.6,2813.8,278.8,948.7,1811.2,2839.1,176.5,73.5,23.5
0.226000,959.7,167.5,1798.1,195.7,2829.3,265.0,946.1,1820,2844.9,176.3,73.5,23.1
0.228000,959.1,161.7,1809.1,198.8,2848.9,250.2,943.4,1828.7,2850.8,176.1,73.5,22.2
0.230000,957.4,157.0,1822.0,214.1,2866.8,239.9,940.9,1837.2,2856.6,176,73.4,20.9
0.232000,954.3,154.1,1839.0,240.5,2875.8,237.0,938.4,1845.5,2862.3,175.8,73.3,19.7
0.234000,950.3,153.0,1857.7,265.7,2875.1,240.0,936.1,1853.5,2867.8,175.6,73.3,18.7
0.236000,945.3,153.1,1873.3,281.3,2872.8,242.1,933.9,1861,2873,175.5,73.2,18.3
0.238000,939.5,153.8,1882.0,288.0,2874.5,237.4,931.9,1868,2877.9,175.3,73.2,18.4
0.240000,932.6,154.7,1885.1,290.3,2879.6,224.0,930.1,1874.4,2882.4,175.1,73.2,18.8
0.242000,925.8,154.7,1886.7,287.1,2884.0,206.3,928.4,1880.1,2886.5,175,73.1,19.3
0.244000,919.4,153.3,1891.2,275.4,2886.7,189.6,927,1885.1,2890,174.8,73,19.6
0.246000,913.2,151.9,1898.8,256.6,2889.1,177.3,925.9,1889.2,2892.9,174.7,73,19.6
0.248000,907.6,151.8,1904.7,238.8,2892.6,169.1,924.9,1892.5,2895.3,174.5,72.9,19.5
0.250000,902.8,152.1,1906.8,224.4,2898.0,159.8,924.3,1894.8,2897,174.4,72.8,19.3
0.252000,898.5,152.0,1905.7,212.0,2903.7,146.5,923.9,1896.3,2898,174.3,72.6,19
0.254000,894.4,153.3,1903.2,200.8,2906.1,133.7,923.7,1896.7,2898.3,174.2,72.5,18.5
