time,f1,b1,f2,b2,f3,b3,f1p,f2p,f3p,f0,intensity,harmonicity
0.025000,412.1,136.7,2759.3,182.0,3290.6,146.2,421.4,2759,3325.9,188.4,73.3,6.5
0.027000,414.1,125.2,2766.0,161.5,3297.7,136.5,421.7,2759.6,3325.5,188.1,73.5,7.4
0.029000,415.3,117.7,2769.6,138.3,3304.5,129.1,422.2,2760.6,3324.9,187.9,73.6,8.6
0.031000,417.5,114.6,2772.7,119.5,3310.8,126.9,423,2761.9,3324,187.6,73.6,10.1
0.033000,421.2,115.8,2776.8,106.6,3317.4,131.0,423.9,2763.5,3322.8,187.3,73.6,11.6
0.035000,425.5,121.3,2780.4,100.5,3323.3,139.5,425.1,2765.2,3321.4,187,73.5,13.1
0.037000,428.9,128.7,2781.4,100.3,3326.8,147.1,426.5,2767.2,3319.6,186.7,73.3,14.5
0.039000,431.2,136.1,2779.5,105.1,3327.4,149.8,428.1,2769.2,3317.6,186.4,73.2,16.1
0.041000,432.4,141.2,2776.0,111.8,3325.9,146.6,429.9,2771.1,3315.2,186.1,73.1,17.6
0.043000,433.4,143.8,2772.7,115.3,3323.9,140.4,432,2772.9,3312.4,185.8,73,19.2
0.045000,435.0,145.2,2770.3,114.0,3321.3,133.1,434.2,2774.5,3309.3,185.5,73,20.7
0.047000,437.6,146.6,2768.3,110.8,3317.3,126.6,436.7,2775.6,3305.8,185.3,72.9,22.2
0.049000,441.9,148.9,2766.2,109.7,3311.2,122.0,439.3,2776.4,3301.9,185,72.8,23.9
0.051000,447.1,151.8,2763.5,111.5,3304.4,119.9,442.2,2776.5,3297.6,184.7,72.7,25.4
0.053000,453.0,155.1,2758.9,114.4,3298.6,119.9,445.3,2776.1,3292.9,184.4,72.6,26.7
0.055000,458.8,157.9,2752.1,116.8,3295.7,121.6,448.6,2774.8,3287.8,184.1,72.5,27.4
0.057000,463.8,160.9,2745.1,119.7,3294.2,124.9,452.2,2772.7,3282.2,183.9,72.3,27.3
0.059000,467.8,165.6,2741.6,124.9,3290.8,130.7,456,2769.7,3276.3,183.6,72.2,26.6
0.061000,470.8,172.0,2743.5,131.9,3284.1,138.0,460,2765.8,3269.9,183.4,72.1,25.7
0.063000,473.1,178.6,2747.3,137.8,3275.7,144.7,464.3,2760.8,3263.2,183.1,72,24.8
0.065000,474.5,184.8,2749.5,143.6,3266.6,151.6,468.9,2754.8,3256,182.9,71.9,24.2
0.067000,473.7,191.2,2748.7,152.4,3257.1,160.7,473.8,2747.8,3248.6,182.7,71.9,24
0.069000,472.0,197.8,2745.3,165.1,3247.6,170.6,479,2739.6,3240.8,182.5,71.8,24.1
0.071000,471.8,204.4,2738.3,180.7,3238.3,178.4,484.5,2730.5,3232.7,182.3,71.8,24.2
0.073000,474.1,210.6,2727.1,194.3,3229.7,180.5,490.4,2720.3,3224.4,182.1,71.8,24.4
0.075000,478.7,215.8,2713.7,198.9,3221.3,177.9,496.6,2709.1,3216,181.9,71.8,24.5
0.077000,486.5,220.3,2699.8,188.9,3211.0,172.1,503.2,2696.9,3207.3,181.8,71.8,24.7
0.079000,498.3,223.2,2687.3,167.5,3198.7,164.7,510.1,2683.9,3198.6,181.6,71.8,24.9
0.081000,512.3,223.8,2676.9,146.3,3185.3,159.6,517.5,2670.2,3189.8,181.5,71.8,25.1
0.083000,526.7,223.7,2666.7,131.8,3169.3,160.8,525.2,2655.6,3181,181.3,71.8,25.2
0.085000,538.8,225.6,2656.2,127.1,3152.1,168.4,533.4,2640.5,3172.3,181.2,71.8,25.1
0.087000,548.5,230.7,2644.5,129.4,3137.5,177.6,542,2624.8,3163.7,181.1,71.8,24.7
0.089000,556.3,239.5,2631.6,135.4,3128.9,184.3,551,2608.7,3155.3,181,71.8,24.2
0.091000,563.9,251.0,2616.3,143.9,3122.2,186.7,560.4,2592.3,3147.1,180.9,71.8,23.5
0.093000,572.0,261.8,2598.0,155.2,3112.6,184.7,570.2,2575.6,3139.1,180.8,71.8,22.9
0.095000,580.4,270.7,2575.3,167.6,3101.5,179.7,580.4,2558.7,3131.5,180.8,71.7,22.4
0.097000,590.2,278.1,2546.8,174.0,3095.5,171.8,591,2541.7,3124.1,180.7,71.7,22.1
0.099000,602.1,283.1,2518.9,168.3,3099.9,164.0,602,2524.8,3117.2,180.7,71.7,21.8
0.101000,615.6,286.3,2497.4,157.6,3109.5,159.0,613.3,2507.9,3110.7,180.6,71.6,21.6
0.103000,630.4,289.5,2480.8,149.4,3117.3,158.8,625,2491.2,3104.5,180.6,71.6,21.4
0.105000,645.0,294.8,2466.7,147.1,3118.6,164.5,636.9,2474.6,3098.9,180.6,71.6,21.2
0.107000,657.8,302.8,2452.0,148.9,3113.9,173.5,649.1,2458.3,3093.6,180.5,71.5,21.1
0.109000,669.0,313.2,2434.5,151.4,3106.2,182.4,661.5,2442.2,3088.9,180.5,71.5,21.1
0.111000,678.5,323.5,2416.0,150.4,3099.6,189.6,674.1,2426.4,3084.5,180.5,71.5,21.1
0.113000,686.6,330.6,2400.3,143.8,3095.9,196.0,686.8,2410.9,3080.6,180.5,71.5,21.1
0.115000,694.6,334.5,2386.4,132.7,3093.3,204.4,699.6,2395.7,3077.1,180.5,71.5,21
0.117000,703.3,335.7,2373.2,121.2,3089.5,216.9,712.5,2380.8,3074.1,180.5,71.5,20.9
0.119000,714.1,333.3,2359.4,112.2,3083.2,230.0,725.3,2366.1,3071.3,180.6,71.5,20.7
0.121000,728.9,324.8,2342.7,104.8,3074.6,237.6,738.1,2351.6,3069,180.6,71.6,20.4
0.123000,745.8,311.3,2324.6,97.2,3067.0,234.7,750.7,2337.4,3066.9,180.6,71.6,20.1
0.125000,761.6,298.4,2308.8,88.7,3063.6,225.0,763.1,2323.3,3065.1,180.7,71.7,19.8
0.127000,774.9,290.9,2298.1,81.0,3064.0,215.6,775.4,2309.3,3063.5,180.7,71.7,19.5
0.129000,787.8,286.7,2290.4,75.8,3066.2,208.9,787.3,2295.4,3062,180.8,71.8,19.2
0.131000,801.4,281.4,2283.6,74.7,3068.4,205.9,798.9,2281.6,3060.8,180.8,71.8,18.8
0.133000,814.7,274.4,2275.0,78.0,3069.2,206.7,810.2,2267.8,3059.6,180.9,71.9,18.5
0.135000,827.3,268.4,2261.4,84.5,3067.7,209.9,821.1,2254,3058.4,181,71.9,18.2
0.137000,837.6,265.9,2243.4,90.4,3063.3,213.5,831.5,2240.1,3057.3,181.1,71.8,18
0.139000,845.9,265.7,2226.0,93.7,3057.1,218.2,841.4,2226.2,3056.2,181.2,71.8,17.8
0.141000,853.3,266.1,2211.9,96.1,3051.0,225.2,850.8,2212.1,3055,181.3,71.8,17.6
0.143000,859.9,266.2,2201.8,99.8,3048.8,232.5,859.7,2198,3053.7,181.4,71.8,17.5
0.145000,866.6,264.7,2192.2,104.3,3050.2,237.2,868.1,2183.9,3052.3,181.5,71.7,17.4
0.147000,874.6,260.3,2179.2,108.6,3051.8,239.9,875.8,2169.6,3050.7,181.7,71.7,17.4
0.149000,883.2,253.0,2162.8,111.7,3049.9,243.3,883.1,2155.4,3049,181.8,71.7,17.4
0.151000,890.6,244.8,2145.9,113.9,3044.5,250.0,889.7,2141.1,3047.2,181.9,71.6,17.5
0.153000,896.2,238.3,2130.6,116.8,3037.8,262.5,895.8,2126.9,3045.2,182.1,71.6,17.6
0.155000,900.1,236.8,2118.2,122.3,3032.4,281.6,901.3,2112.7,3043,182.2,71.6,17.8
0.157000,903.6,239.5,2107.2,130.6,3028.0,301.9,906.3,2098.7,3040.7,182.4,71.5,18.1
0.159000,908.2,242.7,2094.9,140.6,3023.1,315.5,910.7,2084.9,3038.2,182.6,71.5,18.5
0.161000,913.4,243.2,2080.4,148.7,3017.4,317.6,914.7,2071.3,3035.6,182.8,71.5,19
0.163000,917.8,239.5,2064.3,150.7,3011.6,311.0,918.2,2058.1,3032.8,183,71.5,19.4
0.165000,921.5,231.6,2046.5,146.3,3006.5,300.1,921.2,2045.3,3030,183.2,71.5,19.8
0.167000,924.6,222.0,2029.3,140.1,3005.1,289.6,923.8,2033,3027.1,183.4,71.5,20
0.169000,927.0,212.8,2014.2,137.5,3010.1,282.5,925.9,2021.3,3024.1,183.6,71.5,20.1
0.171000,928.2,205.9,2001.5,141.0,3020.4,280.3,927.8,2010.2,3021,183.8,71.5,20.1
0.173000,928.1,201.2,1990.3,150.2,3030.9,285.5,929.3,1999.7,3018,184,71.4,20.3
0.175000,927.2,199.1,1983.7,161.5,3033.0,302.8,930.5,1990,3015,184.3,71.4,20.5
0.177000,926.2,200.1,1982.9,172.6,3024.4,332.6,931.5,1981.1,3012,184.5,71.3,21
0.179000,925.5,203.4,1983.7,184.5,3011.3,365.7,932.2,1973,3009.2,184.8,71.3,21.6
0.181000,926.2,206.1,1980.4,195.5,3005.3,378.6,932.8,1965.7,3006.3,185,71.2,22.3
0.183000,928.4,205.9,1971.0,204.5,3009.6,366.4,933.2,1959.3,3003.7,185.3,71.2,22.8
0.185000,931.3,202.4,1956.5,210.7,3017.3,343.7,933.4,1953.8,3001.1,185.6,71.2,23.1
0.187000,934.1,195.6,1941.2,210.2,3019.8,327.6,933.6,1949.1,2998.7,185.9,71.1,23
0.189000,936.5,187.7,1930.1,203.8,3014.5,326.4,933.7,1945.2,2996.4,186.1,71.1,22.8
0.191000,938.3,182.3,1924.3,196.2,3004.1,343.0,933.7,1942.1,2994.3,186.4,71.1,22.4
0.193000,938.8,182.2,1923.1,192.4,2994.8,376.7,933.6,1939.8,2992.4,186.7,71.1,21.9
0.195000,938.0,185.3,1924.1,192.3,2990.4,416.7,933.6,1938.2,2990.7,187,71.1,21.4
0.197000,937.0,186.0,1926.1,190.6,2988.2,441.3,933.5,1937.3,2989.1,187.3,71.1,20.9
0.199000,937.3,180.9,1929.5,182.3,2986.3,428.2,933.4,1936.9,2987.7,187.6,71.1,20.3
0.201000,938.5,175.3,1935.0,171.0,2988.3,402.9,933.3,1937,2986.5,187.9,71.1,19.7
0.203000,939.8,173.0,1940.8,159.4,2994.7,389.3,933.2,1937.5,2985.4,188.2,71.1,19.2
0.205000,940.6,174.4,1943.2,148.6,3001.3,390.4,933.2,1938.3,2984.5,188.5,71,18.8
0.207000,940.6,177.5,1941.4,138.5,3004.9,396.6,933.1,1939.4,2983.7,188.8,71,18.7
0.209000,940.1,180.4,1938.0,129.6,3005.1,398.4,933.1,1940.6,2983,189,70.9,18.7
0.211000,938.9,183.7,1936.5,122.7,3002.2,393.0,933,1941.9,2982.5,189.3,70.8,18.8
0.213000,936.4,189.2,1939.2,120.6,2994.0,385.9,933,1943.2,2982,189.6,70.8,18.9
0.215000,932.8,198.2,1945.3,124.1,2978.3,385.9,933,1944.5,2981.6,189.8,70.7,18.7
0.217000,929.2,210.1,1952.1,130.8,2957.8,392.8,933,1945.6,2981.4,190,70.6,18.4
0.219000,927.7,221.4,1956.9,136.2,2945.2,397.3,933,1946.5,2981.2,190.3,70.4,17.9
0.221000,927.4,231.2,1958.5,137.7,2948.7,394.6,933,1947.2,2981,190.5,70.2,17.4
0.223000,924.2,243.2,1957.6,137.0,2962.5,391.6,933,1947.6,2980.9,190.7,70,16.6
0.225000,915.0,261.5,1955.3,137.7,2973.2,402.2,933,1947.8,2980.9,190.9,69.6,15.5
