time,f1,b1,f2,b2,f3,b3,f1p,f2p,f3p,f0,intensity,harmonicity
0.025000,671.4,66.6,1443.2,62.8,3234.4,677.7,693.6,1500,3228.8,237.5,77.2,12
0.027000,683.9,63.5,1459.9,65.2,3205.4,635.4,694.2,1504.2,3226.5,237.7,77.6,12.8
0.029000,692.7,61.1,1480.7,70.7,3177.6,609.6,695.2,1511.1,3222.8,237.9,78,14.1
0.031000,699.0,58.4,1506.3,76.3,3160.2,585.1,696.5,1520.3,3217.7,238.1,78.3,15.7
0.033000,703.9,55.2,1535.7,78.2,3163.7,549.9,698.2,1531.8,3211.3,238.3,78.5,17.2
0.035000,707.4,52.3,1566.1,74.3,3187.4,500.3,700.1,1545.1,3203.8,238.6,78.7,18.4
0.037000,709.9,50.2,1593.3,66.1,3213.9,447.3,702.3,1559.9,3195.3,238.8,78.8,19
0.039000,711.7,49.2,1614.3,57.7,3229.8,416.2,704.6,1575.8,3186.1,239.1,79,19.5
0.041000,713.6,49.5,1630.0,51.9,3236.3,413.7,707.1,1592.4,3176.3,239.4,79,19.8
0.043000,715.6,50.3,1642.7,48.1,3235.4,423.7,709.6,1609.3,3166.1,239.7,79.1,19.9
0.045000,716.9,49.6,1653.4,44.4,3222.1,428.3,712,1626,3155.7,240,79.1,19.8
0.047000,717.4,47.4,1662.5,40.1,3194.3,418.2,714.5,1642.4,3145.5,240.3,79.1,19.3
0.049000,717.8,45.8,1671.2,36.9,3164.7,399.8,716.7,1658,3135.5,240.6,79.1,18.5
0.051000,718.7,46.4,1679.7,35.8,3139.0,396.0,718.8,1672.7,3126.1,240.9,79.1,17.5
0.053000,720.1,48.2,1687.8,36.3,3112.4,409.0,720.7,1686.3,3117.3,241.3,79,16.6
0.055000,721.3,49.6,1695.4,37.2,3085.8,422.4,722.4,1698.6,3109.4,241.6,79,16
0.057000,722.3,49.6,1702.3,37.5,3064.6,425.8,723.7,1709.7,3102.6,241.9,78.9,15.6
0.059000,722.7,47.9,1708.3,37.4,3051.0,423.2,724.7,1719.6,3096.9,242.3,78.7,15.5
0.061000,722.5,45.4,1712.9,37.7,3043.9,421.6,725.5,1728.3,3092.5,242.6,78.6,15.5
0.063000,721.9,43.3,1716.1,39.8,3043.2,421.5,725.9,1736.1,3089.3,243,78.4,15.6
0.065000,721.3,42.6,1718.6,45.0,3049.0,417.5,726,1743,3087.4,243.3,78.2,16
0.067000,721.1,43.9,1722.1,54.5,3061.1,401.6,725.9,1749.2,3086.8,243.7,77.9,16.6
0.069000,721.4,47.3,1728.9,67.6,3076.5,369.9,725.6,1755.1,3087.4,244,77.7,17.4
0.071000,722.1,51.6,1739.0,81.3,3090.8,329.6,725.1,1760.7,3089.1,244.3,77.4,18.3
0.073000,722.7,56.2,1750.4,92.5,3103.3,290.0,724.4,1766.2,3091.8,244.6,77.1,19.3
0.075000,723.2,60.5,1761.5,101.5,3114.3,254.9,723.7,1771.8,3095.4,245,76.9,20.2
0.077000,723.4,64.6,1772.8,110.7,3124.5,227.2,722.9,1777.7,3099.6,245.3,76.6,21.2
0.079000,723.5,68.7,1785.7,121.4,3133.6,208.4,722.2,1783.8,3104.4,245.6,76.4,22.3
0.081000,723.5,72.9,1800.6,131.9,3139.7,199.6,721.6,1790.2,3109.5,245.9,76.2,23.3
0.083000,723.7,77.0,1816.8,139.0,3141.7,203.1,721.1,1796.9,3114.7,246.2,76,24.2
0.085000,723.8,80.6,1831.4,141.3,3139.0,221.7,720.7,1803.8,3119.9,246.5,75.8,24.7
0.087000,723.8,83.9,1841.5,140.7,3133.1,252.1,720.6,1810.8,3125,246.9,75.6,24.8
0.089000,723.9,88.1,1846.7,140.5,3130.6,277.4,720.7,1817.7,3129.8,247.2,75.4,24.5
0.091000,724.2,93.7,1848.5,141.0,3134.4,283.0,721,1824.4,3134.3,247.5,75.3,24.1
0.093000,724.5,98.9,1848.5,140.2,3138.2,274.6,721.6,1830.7,3138.4,247.8,75.1,23.7
0.095000,724.6,102.8,1847.8,137.4,3137.9,267.3,722.3,1836.3,3142.2,248.1,74.9,23.6
0.097000,724.6,106.3,1846.7,133.7,3135.1,268.3,723.3,1841.1,3145.7,248.3,74.7,23.7
0.099000,725.0,111.4,1845.0,130.4,3134.1,273.2,724.3,1844.8,3148.9,248.6,74.6,24.1
0.101000,725.6,118.3,1843.3,128.0,3136.7,275.0,725.5,1847.5,3152.1,248.9,74.4,24.5
0.103000,726.4,126.7,1841.5,127.8,3141.3,278.4,726.6,1848.8,3155.3,249.2,74.2,24.8
0.105000,727.3,137.5,1838.8,130.9,3146.1,292.8,727.7,1848.9,3158.8,249.5,74,24.9
0.107000,728.2,151.2,1833.9,135.6,3151.6,318.7,728.7,1847.6,3162.7,249.8,73.8,24.6
0.109000,728.9,167.2,1826.9,139.0,3160.8,344.0,729.4,1844.9,3167.4,250.1,73.6,24
0.111000,728.5,182.1,1818.8,138.4,3174.1,356.2,729.9,1841,3173,250.3,73.4,23.3
0.113000,726.7,193.5,1811.0,133.4,3187.3,359.8,730,1835.9,3179.7,250.6,73.2,22.7
0.115000,724.7,203.5,1805.0,126.3,3199.3,370.7,729.8,1829.7,3187.6,250.8,73.1,22.3
0.117000,723.1,214.6,1801.2,119.2,3211.7,404.7,729,1822.8,3197.1,251.1,72.9,22.2
0.119000,721.9,226.3,1798.3,113.0,3223.4,474.9,727.8,1815.2,3208,251.3,72.8,22.2
0.121000,720.7,238.0,1795.7,107.0,3232.0,581.7,726.1,1807.1,3220.6,251.5,72.7,22.4
0.123000,719.7,250.2,1793.6,100.5,3237.4,692.7,723.9,1798.9,3234.8,251.7,72.7,22.6
0.125000,718.9,262.6,1792.5,93.2,3248.1,756.3,721.1,1790.6,3250.5,251.9,72.6,22.8
0.127000,718.0,272.7,1791.8,85.8,3263.8,763.1,717.9,1782.5,3267.5,252.1,72.6,22.9
0.129000,716.3,277.0,1790.5,78.4,3271.6,741.1,714.3,1774.7,3285.8,252.3,72.6,23.1
0.131000,713.5,275.1,1788.4,71.2,3266.1,713.8,710.4,1767.5,3304.9,252.4,72.6,23.3
0.133000,709.9,269.5,1785.7,64.0,3254.1,691.9,706.2,1760.8,3324.7,252.5,72.6,23.4
0.135000,706.4,266.0,1782.7,57.7,3254.1,691.7,701.9,1754.8,3344.8,252.7,72.6,23.4
0.137000,703.9,272.1,1779.9,53.6,3291.9,735.0,697.5,1749.5,3364.6,252.8,72.5,23.3
0.139000,702.1,287.5,1777.0,51.7,3381.6,821.1,693.1,1744.9,3384,252.8,72.5,23.3
0.141000,700.1,305.2,1773.2,51.5,3510.1,908.3,688.9,1741.1,3402.3,252.9,72.3,23.1
0.143000,697.6,323.7,1767.8,53.5,3632.9,938.8,685.1,1737.9,3419.2,253,72.1,22.7
0.145000,694.4,343.6,1760.2,58.7,3692.7,943.2,681.6,1735.3,3434.3,253,71.9,21.8
0.147000,690.4,365.3,1749.2,68.1,3667.7,986.9,678.5,1733.3,3447.2,253,71.5,20.3
0.149000,685.9,392.8,1733.1,82.2,3544.5,1014.5,676.1,1731.9,3457.6,253.1,71,18.1
0.151000,679.0,431.1,1709.9,100.3,3382.6,923.6,674.3,1730.9,3465.2,253.1,70.5,15.7
0.153000,660.9,474.3,1677.3,119.2,3251.4,809.7,673.2,1730.3,3469.8,253.1,69.9,13.6
0.155000,616.8,493.3,1634.7,132.0,3149.7,747.7,672.9,1730.1,3471.4,253,69.3,12.2
