time,f1,b1,f2,b2,f3,b3,f1p,f2p,f3p,f0,intensity,harmonicity
0.026000,748.6,156.7,1639.9,223.2,2768.8,977.6,789.2,1684.1,2802.6,231.2,73.7,4
0.028000,751.1,144.3,1641.2,202.8,2775.9,752.3,791.5,1684.4,2803.1,230.8,74.4,3.7
0.030000,758.1,150.8,1654.8,173.5,2799.2,579.1,795.2,1684.9,2804,230.4,74.9,3.1
0.032000,766.8,168.5,1667.4,154.3,2813.8,493.5,800.3,1685.6,2805.3,230,75.2,2.5
0.034000,776.7,195.6,1677.8,142.8,2819.1,457.8,806.8,1686.4,2806.9,229.6,75.4,2.5
0.036000,789.2,234.5,1686.3,137.7,2819.0,438.8,814.5,1687.3,2808.9,229.2,75.6,3.4
0.038000,808.1,289.2,1694.1,138.2,2820.6,421.9,823.4,1688.4,2811.3,228.9,75.7,5.2
0.040000,832.3,344.7,1701.4,141.9,2825.0,407.0,833.4,1689.5,2814,228.5,75.8,7.4
0.042000,860.9,392.1,1709.4,144.6,2829.4,389.8,844.3,1690.7,2817,228.1,75.9,9.9
0.044000,889.9,428.2,1716.6,144.5,2831.0,370.1,856,1691.9,2820.3,227.8,76.1,12.1
0.046000,913.2,451.8,1720.6,143.8,2828.7,356.3,868.3,1693.1,2824,227.5,76.2,13.9
0.048000,926.6,462.2,1720.8,145.0,2823.3,356.3,881.2,1694.2,2828,227.2,76.3,15.4
0.050000,930.6,460.8,1718.3,148.8,2818.6,372.1,894.4,1695.2,2832.3,226.9,76.4,16.8
0.052000,934.0,455.2,1714.4,154.7,2819.3,397.5,907.8,1696,2836.9,226.6,76.4,18.1
0.054000,943.5,451.8,1710.7,159.9,2829.1,419.2,921.2,1696.7,2841.8,226.4,76.4,19.4
0.056000,957.4,450.3,1707.7,162.3,2844.3,431.1,934.5,1697.2,2846.9,226.1,76.4,20.7
0.058000,971.5,448.3,1704.7,163.1,2859.9,438.8,947.5,1697.5,2852.3,225.9,76.4,22.2
0.060000,980.9,445.8,1701.8,164.0,2870.5,447.0,960.1,1697.5,2857.9,225.8,76.3,23.6
0.062000,986.6,442.8,1698.6,165.8,2875.9,454.1,972.2,1697.2,2863.7,225.6,76.3,24.9
0.064000,992.0,439.1,1695.6,167.8,2878.9,449.5,983.6,1696.6,2869.7,225.5,76.2,25.9
0.066000,1001.1,434.0,1692.9,169.1,2884.7,425.0,994.3,1695.7,2875.8,225.4,76.2,26.4
0.068000,1012.1,426.4,1691.1,169.4,2893.7,386.5,1004,1694.5,2882.1,225.3,76.1,26.5
0.070000,1020.3,417.5,1690.5,169.6,2901.8,349.9,1012.8,1693,2888.5,225.2,76,26.2
0.072000,1025.5,407.9,1691.0,170.8,2907.6,320.4,1020.6,1691.1,2895.1,225.1,76,25.8
0.074000,1029.5,398.7,1692.3,172.8,2910.6,299.9,1027.3,1689,2901.6,225.1,75.9,25.3
0.076000,1033.9,389.5,1693.1,175.2,2911.7,284.9,1033,1686.6,2908.3,225.1,75.8,25
0.078000,1037.0,382.5,1691.9,177.8,2911.7,276.8,1037.4,1683.8,2914.9,225.1,75.7,24.8
0.080000,1036.9,378.4,1687.8,180.9,2911.9,275.9,1040.8,1680.9,2921.6,225.1,75.6,24.5
0.082000,1033.0,377.0,1680.9,183.9,2913.9,281.7,1043.1,1677.7,2928.2,225.1,75.5,24.1
0.084000,1027.7,376.2,1673.2,185.2,2919.0,290.5,1044.2,1674.3,2934.7,225.2,75.5,23.7
0.086000,1023.2,374.1,1665.6,185.0,2927.1,300.5,1044.4,1670.8,2941.2,225.2,75.4,23
0.088000,1020.0,371.2,1658.8,185.5,2935.7,312.4,1043.6,1667.2,2947.5,225.3,75.3,21.9
0.090000,1015.9,369.4,1651.0,188.7,2944.0,326.7,1041.8,1663.5,2953.8,225.3,75.2,20.7
0.092000,1009.6,369.3,1641.6,192.8,2951.8,333.4,1039.3,1659.7,2959.8,225.4,75.2,19.5
0.094000,1003.3,368.9,1633.3,193.7,2959.8,325.0,1036,1656,2965.7,225.5,75.1,18.8
0.096000,1000.6,365.9,1629.5,190.5,2967.4,309.9,1032.1,1652.3,2971.3,225.6,75,18.7
0.098000,1003.7,359.9,1631.1,185.8,2973.4,302.1,1027.6,1648.6,2976.8,225.7,75,19.3
0.100000,1010.5,351.7,1634.8,181.4,2979.0,304.5,1022.7,1645.1,2982,225.8,75,20.3
0.102000,1016.7,344.0,1636.9,179.0,2985.8,310.2,1017.5,1641.8,2987,225.9,74.9,21.4
0.104000,1019.2,338.4,1636.7,178.4,2993.9,311.6,1012.1,1638.6,2991.7,226,74.9,22.2
0.106000,1015.6,337.7,1634.8,179.9,3002.0,308.6,1006.5,1635.7,2996.1,226.1,74.9,22.6
0.108000,1007.9,342.3,1633.1,182.6,3010.1,307.6,1000.9,1632.9,3000.3,226.2,74.8,22.5
0.110000,1000.5,349.4,1632.3,184.9,3018.4,310.8,995.4,1630.5,3004.2,226.3,74.8,22.2
0.112000,997.8,353.6,1632.1,184.0,3023.1,313.2,990.1,1628.3,3007.7,226.5,74.8,21.9
0.114000,998.4,353.3,1631.3,179.8,3022.6,312.0,985,1626.4,3011,226.6,74.8,21.8
0.116000,997.6,351.9,1629.3,175.7,3019.4,312.9,980.2,1624.8,3014,226.7,74.8,21.9
0.118000,992.6,354.1,1627.1,174.2,3017.8,323.9,975.8,1623.5,3016.8,226.8,74.8,22.3
0.120000,983.9,360.1,1626.3,174.6,3019.9,343.2,971.7,1622.4,3019.2,226.9,74.9,22.9
0.122000,974.7,363.7,1627.3,173.6,3023.6,357.3,968.1,1621.7,3021.4,227,74.9,23.4
0.124000,967.1,361.9,1629.1,170.1,3026.4,359.3,965,1621.2,3023.3,227.1,74.9,23.9
0.126000,962.4,356.8,1629.8,166.1,3027.0,357.2,962.4,1621,3025,227.2,74.8,24.2
0.128000,959.3,353.0,1628.3,163.3,3025.1,365.3,960.2,1621,3026.5,227.3,74.8,24.4
0.130000,956.7,353.4,1624.8,162.8,3021.4,385.5,958.5,1621.2,3027.7,227.4,74.8,24.5
0.132000,953.5,356.5,1621.5,164.0,3018.7,403.0,957.3,1621.6,3028.7,227.5,74.8,24.6
0.134000,950.8,358.6,1620.6,165.8,3018.9,408.9,956.5,1622.2,3029.6,227.6,74.8,24.6
0.136000,950.6,358.7,1623.4,167.8,3020.8,408.3,956,1623,3030.2,227.7,74.9,24.7
0.138000,954.5,358.4,1629.3,170.4,3023.1,406.7,955.8,1623.9,3030.8,227.8,74.9,24.8
0.140000,961.5,357.9,1635.0,172.9,3024.2,399.5,955.9,1624.9,3031.1,227.9,75,24.8
0.142000,969.2,356.5,1638.8,174.0,3023.6,383.4,956.2,1626,3031.4,228,75,24.8
0.144000,974.0,352.1,1639.9,172.2,3021.3,365.6,956.7,1627.2,3031.6,228.1,75.1,24.9
0.146000,976.0,343.8,1639.6,167.3,3017.8,352.2,957.1,1628.5,3031.6,228.2,75.1,25
0.148000,976.9,333.1,1637.9,160.6,3015.5,344.3,957.6,1629.8,3031.6,228.3,75.1,25.1
0.150000,977.6,325.8,1634.7,154.6,3017.1,345.1,958,1631.1,3031.6,228.4,75.1,25.3
0.152000,977.3,325.9,1630.8,151.0,3024.2,358.7,958.2,1632.5,3031.4,228.5,75.1,25.5
0.154000,974.9,335.1,1629.2,151.9,3037.5,386.0,958.2,1634,3031.3,228.6,75.1,25.5
0.156000,970.3,347.6,1630.9,155.9,3053.3,415.4,957.8,1635.5,3031.1,228.7,75.2,25.3
0.158000,963.2,359.8,1634.3,161.7,3068.4,434.8,957.1,1637.1,3030.9,228.8,75.2,24.8
0.160000,952.6,371.4,1636.5,169.0,3081.8,439.1,956,1638.7,3030.7,228.9,75.2,24.1
0.162000,940.9,379.6,1637.5,175.0,3086.6,431.9,954.4,1640.5,3030.4,229,75.2,23.5
0.164000,935.5,379.6,1639.1,174.2,3072.8,424.5,952.3,1642.4,3030.2,229.1,75.2,23.2
0.166000,935.0,373.8,1642.0,167.8,3048.3,414.0,949.6,1644.4,3029.9,229.2,75.2,23.3
0.168000,934.6,367.3,1645.3,161.1,3027.8,392.7,946.4,1646.6,3029.6,229.4,75.1,24
0.170000,932.1,362.7,1648.0,157.7,3014.4,364.1,942.5,1649,3029.4,229.5,75.1,25
0.172000,926.9,359.9,1649.5,158.6,3004.7,335.6,938,1651.6,3029.1,229.6,75.1,25.9
0.174000,918.4,357.8,1649.4,162.7,3000.7,317.7,933,1654.5,3028.8,229.7,75.1,26.5
0.176000,905.7,354.1,1647.6,167.2,3003.2,311.5,927.3,1657.7,3028.4,229.9,75.1,26.3
0.178000,892.0,347.2,1645.5,168.1,3008.9,311.9,921,1661.2,3028.1,230,75.2,25.4
0.180000,879.2,337.8,1644.7,165.2,3013.4,310.1,914.2,1665.1,3027.7,230.1,75.2,24.1
0.182000,870.0,329.6,1647.1,162.1,3014.4,302.4,906.8,1669.3,3027.3,230.2,75.2,22.8
0.184000,864.9,324.9,1653.1,162.0,3013.5,293.8,898.9,1674,3026.9,230.3,75.3,21.8
0.186000,863.4,322.4,1662.6,163.4,3012.1,287.9,890.5,1679,3026.4,230.4,75.3,21.4
0.188000,864.6,319.1,1673.2,161.9,3010.1,282.7,881.8,1684.5,3025.9,230.5,75.3,21.6
0.190000,867.0,312.4,1684.0,155.0,3007.6,275.0,872.7,1690.4,3025.3,230.6,75.4,22.1
0.192000,869.2,302.3,1694.3,145.0,3005.3,267.5,863.3,1696.7,3024.7,230.7,75.4,22.6
0.194000,868.7,291.8,1704.2,136.5,3005.0,267.2,853.6,1703.5,3024,230.7,75.5,23.1
0.196000,863.6,282.4,1714.4,131.7,3008.8,278.4,843.8,1710.6,3023.2,230.8,75.5,23.3
0.198000,855.0,273.6,1724.3,129.4,3016.1,294.5,833.8,1718.2,3022.4,230.8,75.6,23.5
0.200000,845.7,262.8,1735.9,125.5,3024.0,306.6,823.8,1726.1,3021.6,230.8,75.6,23.5
0.202000,838.2,250.5,1749.0,117.9,3028.1,310.8,813.8,1734.3,3020.7,230.8,75.7,23.5
0.204000,831.3,236.8,1763.3,107.1,3028.9,313.0,803.8,1742.8,3019.7,230.7,75.8,23.5
0.206000,823.4,223.3,1775.6,96.9,3029.3,319.1,794,1751.5,3018.7,230.7,75.8,23.4
0.208000,814.6,211.0,1784.9,89.2,3031.2,326.4,784.3,1760.4,3017.7,230.6,75.9,23.3
0.210000,804.6,198.3,1793.2,83.3,3035.3,326.0,774.9,1769.4,3016.6,230.5,75.9,23.2
0.212000,793.0,185.6,1800.9,79.7,3041.0,314.2,765.8,1778.4,3015.6,230.4,75.9,22.9
0.214000,778.5,171.4,1808.2,78.8,3046.0,295.2,757,1787.4,3014.5,230.3,76,22.6
0.216000,763.9,157.5,1813.7,80.3,3046.9,277.4,748.6,1796.4,3013.4,230.1,76,22.2
0.218000,749.9,144.3,1817.3,83.9,3043.2,264.3,740.6,1805.1,3012.3,230,75.9,21.5
0.220000,738.3,133.5,1819.3,88.0,3035.9,254.7,733.1,1813.6,3011.2,229.8,75.9,20.8
0.222000,729.6,124.4,1821.1,90.4,3027.9,242.6,726.1,1821.7,3010.2,229.6,75.9,20
0.224000,722.4,115.0,1823.9,90.8,3021.6,226.0,719.5,1829.5,3009.2,229.4,75.9,19.4
0.226000,715.8,105.8,1827.6,92.3,3017.8,214.0,713.6,1836.8,3008.3,229.1,75.9,18.8
0.228000,708.3,97.3,1832.0,98.8,3012.4,215.0,708.2,1843.5,3007.4,228.9,75.9,18.4
0.230000,699.8,90.7,1836.8,111.9,3004.0,232.5,703.4,1849.6,3006.6,228.7,75.9,18.1
0.232000,691.2,85.4,1841.7,128.5,2997.9,261.4,699.2,1855,3005.9,228.4,75.8,17.8
0.234000,682.9,81.0,1846.6,143.1,2998.6,290.4,695.6,1859.7,3005.3,228.2,75.8,17.5
0.236000,676.7,78.6,1851.9,146.1,2999.3,296.7,692.7,1863.6,3004.7,228,75.7,17.2
0.238000,672.2,78.5,1857.7,137.1,2992.6,277.7,690.4,1866.7,3004.3,227.7,75.5,17
0.240000,668.1,79.8,1862.2,124.5,2982.3,251.7,688.7,1868.9,3004,227.5,75.3,16.8
0.242000,663.2,82.5,1864.7,112.7,2970.3,228.2,687.8,1870.2,3003.9,227.2,74.9,16.6
0.244000,657.2,87.2,1864.6,103.7,2958.2,210.8,687.4,1870.7,3003.8,227,74.4,16.1
