time,f1,b1,f2,b2,f3,b3,f1p,f2p,f3p,f0,intensity,harmonicity
0.026000,373.6,78.2,1614.1,1474.2,2559.2,84.8,403.6,1702.9,2578.8,217.4,72.9,18.8
0.028000,375.1,79.6,1634.3,1487.4,2567.8,86.0,403.6,1705.2,2579.8,217.6,73,19.4
0.030000,376.8,81.0,1660.7,1524.7,2575.4,88.9,403.5,1709,2581.5,217.8,73.2,20.1
0.032000,379.2,81.7,1691.4,1580.8,2582.2,91.6,403.4,1714.3,2583.9,218,73.3,20.6
0.034000,382.5,80.8,1721.9,1634.1,2588.2,92.1,403.4,1720.8,2586.9,218.3,73.4,21.1
0.036000,386.3,77.9,1742.8,1644.8,2593.4,90.0,403.3,1728.6,2590.5,218.5,73.5,21.4
0.038000,390.4,73.4,1753.2,1596.5,2599.2,86.3,403.3,1737.6,2594.5,218.7,73.6,21.5
0.040000,394.7,68.4,1760.4,1519.0,2606.2,82.3,403.3,1747.4,2599,218.9,73.6,21.5
0.042000,399.3,63.9,1769.5,1451.8,2614.0,78.5,403.3,1758.1,2603.9,219.2,73.6,21.5
0.044000,404.0,60.2,1781.1,1410.6,2621.1,74.9,403.4,1769.3,2609,219.4,73.7,21.5
0.046000,408.8,57.1,1796.5,1390.8,2626.6,72.0,403.6,1781,2614.3,219.6,73.7,21.6
0.048000,413.6,54.1,1814.0,1364.6,2630.9,69.8,403.9,1792.9,2619.7,219.8,73.8,21.8
0.050000,417.8,50.5,1825.4,1306.2,2634.1,67.9,404.3,1804.8,2625.1,220,73.9,22.1
0.052000,421.8,46.6,1834.8,1235.3,2637.4,66.4,404.8,1816.5,2630.3,220.2,74,22.4
0.054000,425.5,43.1,1851.6,1187.6,2641.1,66.2,405.6,1827.8,2635.4,220.4,74.2,22.6
0.056000,429.1,40.2,1874.2,1162.9,2645.1,66.8,406.5,1838.5,2640.2,220.6,74.4,22.6
0.058000,432.1,37.2,1888.5,1132.4,2648.7,66.3,407.6,1848.3,2644.5,220.8,74.7,22.5
0.060000,434.6,33.8,1885.5,1077.6,2651.1,63.5,408.9,1857.2,2648.4,221,75,22.4
0.062000,436.4,30.4,1876.3,1019.0,2651.8,60.0,410.5,1864.8,2651.7,221.2,75.3,22.1
0.064000,437.9,27.4,1872.3,973.6,2651.2,57.5,412.3,1871.1,2654.3,221.4,75.7,21.8
0.066000,439.1,24.8,1876.2,946.1,2649.3,56.8,414.4,1875.9,2656.2,221.6,76.1,21.5
0.068000,440.3,22.8,1884.3,926.4,2646.7,57.9,416.9,1879.2,2657.3,221.8,76.5,21
0.070000,441.5,21.1,1888.8,896.5,2644.0,59.5,419.6,1880.6,2657.6,221.9,76.9,20.5
0.072000,442.8,19.4,1886.6,849.9,2641.6,60.0,422.6,1880.3,2656.9,222.1,77.3,20
0.074000,444.1,18.1,1883.1,806.0,2639.2,59.5,425.9,1878.2,2655.3,222.3,77.7,19.4
0.076000,445.3,17.1,1881.9,774.4,2636.4,58.9,429.6,1874.1,2652.7,222.5,78,18.9
0.078000,446.2,16.5,1880.2,752.0,2633.3,58.7,433.6,1868.2,2649.1,222.7,78.3,18.3
0.080000,447.1,16.1,1873.0,729.6,2630.0,58.8,437.9,1860.5,2644.5,222.9,78.6,17.6
0.082000,447.8,15.8,1858.1,703.4,2626.8,58.8,442.6,1850.9,2638.9,223.1,78.8,17.1
0.084000,448.6,15.7,1837.1,673.7,2623.4,58.9,447.6,1839.6,2632.4,223.3,79,16.6
0.086000,449.4,16.0,1812.3,640.0,2619.5,59.5,452.9,1826.7,2624.9,223.5,79.1,16.2
0.088000,450.3,16.7,1790.8,609.0,2615.1,61.4,458.5,1812.3,2616.5,223.7,79.1,15.9
0.090000,451.5,18.2,1776.6,587.8,2610.6,65.5,464.4,1796.5,2607.3,224,79,15.8
0.092000,452.9,20.8,1771.1,584.8,2606.2,72.9,470.6,1779.6,2597.3,224.2,78.8,15.7
0.094000,455.0,24.6,1771.5,602.2,2601.1,84.1,477.1,1761.6,2586.6,224.4,78.6,15.7
0.096000,457.8,29.5,1771.2,634.4,2593.1,98.4,483.8,1742.9,2575.2,224.7,78.4,15.7
0.098000,461.8,35.4,1761.5,673.9,2579.1,114.3,490.7,1723.6,2563.3,225,78.1,15.9
0.100000,466.7,41.6,1737.2,706.8,2559.8,125.7,497.8,1703.9,2550.8,225.2,77.8,16.2
0.102000,472.8,47.9,1698.9,724.1,2538.2,127.8,505.2,1684.1,2538,225.5,77.5,16.5
0.104000,480.4,54.1,1654.1,722.5,2519.7,121.2,512.6,1664.4,2524.9,225.8,77.2,16.8
0.106000,489.6,60.4,1611.3,712.7,2506.3,112.6,520.2,1645.1,2511.5,226.1,77,17.1
0.108000,500.7,67.0,1575.0,708.7,2496.7,108.0,527.9,1626.3,2498.1,226.4,76.7,17.4
0.110000,513.5,73.7,1547.0,714.9,2489.1,109.2,535.7,1608.4,2484.6,226.7,76.5,17.8
0.112000,528.1,79.8,1526.8,726.0,2482.5,115.6,543.5,1591.4,2471.1,227.1,76.4,18.1
0.114000,542.4,84.0,1515.0,732.8,2477.1,125.0,551.4,1575.7,2457.9,227.4,76.3,18.4
0.116000,556.3,86.2,1507.8,733.2,2471.3,136.1,559.2,1561.4,2444.8,227.7,76.2,18.5
0.118000,569.4,86.9,1504.0,733.7,2463.5,149.2,567,1548.7,2432.1,228.1,76.2,18.5
0.120000,581.7,86.9,1504.9,744.6,2453.2,165.3,574.7,1537.7,2419.7,228.4,76.2,18.4
0.122000,593.1,86.4,1510.9,767.9,2440.0,184.3,582.3,1528.6,2407.7,228.7,76.2,18.3
0.124000,604.1,85.1,1520.3,798.5,2422.7,205.5,589.8,1521.4,2396.3,229.1,76.4,18.2
0.126000,613.7,83.4,1529.9,830.2,2402.0,225.1,597.1,1516.3,2385.3,229.4,76.5,18.3
0.128000,622.5,81.6,1538.5,865.8,2377.9,240.5,604.3,1513.3,2374.9,229.7,76.6,18.6
0.130000,630.3,80.1,1544.8,901.3,2354.1,247.1,611.3,1512.4,2365.1,230.1,76.8,18.9
0.132000,636.8,78.6,1547.5,928.0,2334.3,244.8,618.1,1513.7,2355.9,230.4,76.9,19.2
0.134000,642.2,77.5,1547.1,944.5,2318.7,240.0,624.7,1517,2347.2,230.8,77,19.3
0.136000,646.8,77.2,1545.4,958.3,2304.6,237.6,631,1522.4,2339.2,231.1,77,19.4
0.138000,650.8,77.5,1544.3,963.5,2294.0,236.8,637.1,1529.8,2331.7,231.5,77,19.2
0.140000,654.8,77.7,1544.5,942.2,2288.1,233.7,642.9,1539,2324.7,231.8,76.9,18.9
0.142000,659.4,77.6,1551.1,902.7,2285.9,231.3,648.5,1549.9,2318.2,232.2,76.9,18.6
0.144000,664.9,77.9,1568.0,869.8,2284.2,235.4,653.7,1562.4,2312.2,232.5,76.8,18.4
0.146000,670.1,78.5,1593.2,852.2,2280.9,246.8,658.7,1576.3,2306.6,232.9,76.6,18.4
0.148000,673.7,79.8,1621.8,843.0,2277.2,263.2,663.4,1591.4,2301.4,233.2,76.5,18.4
0.150000,675.6,81.6,1650.8,829.7,2276.3,282.6,667.9,1607.4,2296.4,233.6,76.3,18.6
0.152000,676.7,83.8,1675.8,808.1,2280.4,301.7,672,1624.3,2291.7,233.9,76.2,18.8
0.154000,678.1,86.1,1697.8,781.2,2287.2,319.6,675.9,1641.7,2287.1,234.3,76,19.1
0.156000,680.1,88.6,1717.4,756.6,2291.1,336.4,679.5,1659.4,2282.5,234.7,75.9,19.6
0.158000,682.5,91.0,1735.5,739.4,2288.6,354.0,682.8,1677.2,2278,235,75.8,20.3
0.160000,684.9,93.5,1751.5,729.4,2279.7,371.6,685.9,1694.9,2273.4,235.4,75.7,21.2
0.162000,686.9,95.9,1763.2,721.6,2266.3,386.0,688.7,1712.1,2268.7,235.8,75.6,22.1
0.164000,688.5,97.6,1767.4,712.4,2252.3,392.3,691.2,1728.7,2263.8,236.1,75.6,22.7
0.166000,689.8,98.9,1764.3,699.9,2239.6,392.2,693.6,1744.5,2258.6,236.5,75.5,23
0.168000,690.9,99.8,1754.0,682.4,2230.6,390.8,695.7,1759.2,2253,236.9,75.4,22.9
0.170000,691.7,100.4,1738.0,656.7,2227.0,392.7,697.7,1772.7,2247.1,237.2,75.4,22.5
0.172000,692.3,100.7,1720.3,621.9,2228.3,400.2,699.4,1784.8,2240.7,237.6,75.3,22.1
0.174000,692.9,101.1,1707.4,583.3,2232.9,414.2,701,1795.3,2233.9,238,75.3,21.9
0.176000,693.6,101.9,1703.2,544.8,2239.7,436.3,702.4,1804.1,2226.6,238.3,75.3,21.9
0.178000,694.4,102.8,1706.5,510.2,2248.4,462.7,703.6,1811.1,2218.8,238.7,75.2,22.1
0.180000,695.3,103.4,1712.1,478.2,2257.0,490.1,704.7,1816.2,2210.4,239.1,75.2,22.4
0.182000,696.1,103.8,1717.1,452.5,2261.5,517.2,705.7,1819.3,2201.5,239.4,75.2,22.8
0.184000,697.0,104.4,1723.0,436.0,2260.4,549.3,706.6,1820.5,2192.1,239.8,75.2,23
0.186000,698.0,106.1,1732.7,427.2,2254.2,595.2,707.4,1819.6,2182.2,240.2,75.1,23.2
0.188000,699.6,109.0,1750.4,419.1,2242.7,668.3,708.1,1816.7,2171.8,240.5,75.1,23.1
0.190000,701.8,112.6,1776.3,402.5,2227.1,769.9,708.7,1812,2161,240.9,75.1,23
0.192000,704.6,116.5,1806.3,369.0,2216.2,899.0,709.2,1805.3,2149.7,241.2,75.1,22.9
0.194000,707.7,119.9,1831.1,324.9,2224.3,1033.7,709.7,1796.8,2138.1,241.6,75.1,22.9
0.196000,710.5,122.8,1848.5,285.8,2240.6,1155.3,710.1,1786.7,2126.3,241.9,75.1,23.1
0.198000,712.3,124.9,1862.5,258.2,2221.4,1273.7,710.4,1775,2114.2,242.3,75.1,23.4
0.200000,712.9,126.9,1877.7,238.2,2124.9,1377.3,710.7,1761.9,2102,242.6,75.2,23.9
0.202000,713.0,129.0,1893.3,219.5,1992.9,1400.7,711,1747.6,2089.7,243,75.2,24.3
0.204000,713.2,131.8,1881.4,1370.8,1907.3,198.2,711.2,1732.2,2077.4,243.3,75.2,24.6
0.206000,713.6,134.9,1803.5,1327.8,1918.2,177.1,711.4,1716,2065.2,243.7,75.2,24.5
0.208000,714.4,137.9,1748.4,1283.4,1926.5,158.0,711.6,1699,2053.2,244,75.2,24.2
0.210000,715.0,140.6,1702.8,1235.8,1933.0,140.7,711.8,1681.7,2041.4,244.4,75.2,23.7
0.212000,715.3,142.4,1659.1,1181.3,1938.3,125.2,711.9,1664,2030,244.7,75.2,23.2
0.214000,715.3,143.4,1619.7,1126.6,1942.5,111.7,711.9,1646.3,2019,245,75.2,22.9
0.216000,715.5,144.2,1594.0,1083.2,1945.9,102.4,712,1628.7,2008.5,245.4,75.1,22.8
0.218000,715.5,144.5,1576.9,1032.3,1949.3,95.8,712,1611.4,1998.6,245.7,75,22.9
0.220000,715.0,144.2,1563.4,967.3,1952.8,90.7,712,1594.7,1989.3,246,74.9,23.1
0.222000,714.4,143.3,1551.1,899.5,1956.4,86.3,712,1578.6,1980.7,246.3,74.8,23.4
0.224000,713.5,141.8,1537.9,832.7,1960.3,82.0,711.9,1563.3,1972.9,246.6,74.7,23.6
0.226000,712.0,139.1,1522.6,759.6,1964.8,76.8,711.8,1549,1965.8,247,74.6,23.7
0.228000,710.2,135.5,1508.6,693.1,1969.0,71.7,711.7,1535.8,1959.6,247.3,74.5,23.7
0.230000,709.0,132.5,1498.2,644.1,1972.5,67.8,711.5,1523.8,1954.2,247.6,74.4,23.6
0.232000,708.6,130.2,1490.5,611.5,1975.5,65.4,711.3,1513.1,1949.7,247.9,74.2,23.6
0.234000,708.5,127.1,1482.7,582.9,1978.3,63.1,711.1,1503.8,1946,248.2,74.1,23.6
0.236000,708.2,122.2,1474.8,551.9,1981.1,60.7,710.9,1495.8,1943.2,248.5,73.9,23.5
0.238000,707.9,116.3,1468.9,522.0,1983.7,59.0,710.6,1489.2,1941.2,248.8,73.8,23.4
0.240000,708.2,110.6,1467.5,499.5,1986.3,59.4,710.3,1484.1,1940.1,249.1,73.6,23.3
0.242000,709.5,106.7,1472.2,490.5,1988.6,62.4,709.9,1480.3,1939.7,249.4,73.5,23.2
0.244000,711.4,104.2,1481.3,492.3,1990.8,67.4,709.6,1477.9,1940.1,249.6,73.4,23.3
0.246000,713.5,102.3,1490.4,499.5,1992.8,72.6,709.2,1476.7,1941.2,249.9,73.2,23.5
0.248000,715.0,100.6,1496.6,507.8,1994.4,76.7,708.8,1476.8,1942.8,250.2,73.1,24.1
0.250000,715.9,98.9,1500.6,515.0,1995.4,80.5,708.4,1477.9,1945.1,250.5,73,24.9
0.252000,716.0,97.6,1504.0,521.0,1995.7,84.7,707.9,1480.1,1947.8,250.7,72.9,25.5
0.254000,715.6,97.2,1505.5,527.0,1995.3,88.9,707.5,1483.1,1950.9,251,72.7,25.9
0.256000,714.9,98.0,1503.7,536.9,1994.4,93.6,707.1,1486.8,1954.4,251.2,72.5,25.6
0.258000,714.4,100.1,1499.8,553.4,1994.0,100.1,706.6,1491.2,1958.1,251.5,72.4,24.7
0.260000,714.4,103.5,1497.0,579.6,1994.3,110.2,706.2,1495.9,1961.9,251.7,72.2,23.5
0.262000,714.8,108.2,1497.2,617.3,1994.9,124.9,705.8,1501,1965.8,251.9,72,22.2
0.264000,715.2,114.2,1499.4,665.9,1994.5,143.7,705.4,1506.3,1969.7,252.1,71.7,21.3
0.266000,715.2,120.1,1502.0,715.5,1992.3,163.5,705,1511.6,1973.5,252.4,71.5,20.9
0.268000,714.6,125.8,1508.0,766.8,1987.9,186.3,704.7,1516.7,1977.2,252.6,71.3,21.1
0.270000,713.4,131.2,1523.4,819.4,1980.5,216.1,704.4,1521.6,1980.6,252.8,71.1,21.5
0.272000,711.4,136.4,1548.0,864.3,1969.9,253.0,704.1,1526.1,1983.7,252.9,70.8,22
0.274000,707.4,141.0,1565.3,884.8,1958.1,287.5,703.8,1530.1,1986.4,253.1,70.6,22.4
0.276000,701.1,145.5,1559.6,883.4,1948.1,308.8,703.6,1533.5,1988.7,253.3,70.4,22.5
0.278000,693.0,151.1,1540.7,887.2,1938.4,320.8,703.5,1536.2,1990.6,253.4,70.1,22.5
0.280000,684.7,157.9,1523.6,912.7,1927.3,330.1,703.3,1538.2,1991.9,253.6,69.8,22.4
0.282000,675.6,165.8,1509.4,957.2,1913.8,337.0,703.3,1539.4,1992.7,253.7,69.5,22.2
0.284000,664.8,173.9,1494.7,1011.2,1898.1,337.8,703.2,1539.8,1993,253.8,69.2,21.9
