time,f1,b1,f2,b2,f3,b3,f1p,f2p,f3p,f0,intensity,harmonicity
0.025000,641.6,218.0,1722.4,844.8,1958.8,278.6,667.4,1717,1960.8,219.3,74.7,18.9
0.027000,646.0,214.2,1717.1,804.4,1966.3,276.2,667.6,1716.1,1961.2,219.5,74.7,20.1
0.029000,650.5,213.0,1709.2,787.4,1970.7,268.2,667.9,1714.6,1962,219.6,74.8,21.5
0.031000,655.8,215.6,1702.3,796.0,1971.2,257.4,668.3,1712.5,1963.1,219.8,74.8,23
0.033000,661.8,222.0,1700.0,820.8,1969.3,248.4,668.9,1709.8,1964.4,219.9,74.8,24.2
0.035000,667.8,228.7,1702.0,841.6,1967.9,243.4,669.6,1706.6,1966,220.1,74.8,24.8
0.037000,673.1,231.6,1707.1,849.1,1968.0,241.6,670.4,1702.8,1967.8,220.3,74.9,24.4
0.039000,677.4,231.0,1714.9,855.6,1968.1,240.9,671.3,1698.6,1969.9,220.4,74.9,23.3
0.041000,681.4,230.1,1722.8,872.2,1967.1,237.9,672.2,1693.8,1972.1,220.6,75,22
0.043000,684.9,230.8,1723.6,889.2,1966.5,230.7,673.3,1688.7,1974.5,220.8,75.1,20.9
0.045000,687.1,232.0,1713.9,887.9,1968.3,220.8,674.3,1683.2,1977,221,75.1,20.4
0.047000,687.8,232.2,1697.4,861.5,1972.7,210.2,675.5,1677.3,1979.6,221.2,75.2,20.8
0.049000,687.6,231.2,1679.0,820.6,1978.6,199.6,676.6,1671.1,1982.2,221.4,75.3,21.7
0.051000,687.5,230.6,1664.6,787.2,1983.7,190.8,677.8,1664.7,1984.9,221.6,75.4,22.8
0.053000,688.0,231.2,1653.5,766.2,1987.7,183.5,679,1658.1,1987.5,221.9,75.4,23.9
0.055000,688.6,232.6,1643.2,752.7,1990.7,176.6,680.2,1651.3,1990.1,222.1,75.5,24.7
0.057000,689.0,234.3,1631.3,740.0,1993.2,168.9,681.4,1644.4,1992.6,222.3,75.5,25.1
0.059000,689.1,236.6,1618.3,727.5,1995.0,161.0,682.5,1637.5,1995.1,222.5,75.6,25.4
0.061000,689.1,239.8,1605.9,716.4,1996.4,154.1,683.6,1630.6,1997.4,222.8,75.6,25.6
0.063000,689.1,243.2,1596.2,707.5,1997.8,149.3,684.6,1623.7,1999.6,223,75.7,25.6
0.065000,689.3,245.7,1591.2,704.0,1999.2,147.7,685.5,1616.9,2001.6,223.2,75.7,25.5
0.067000,689.5,247.0,1589.2,704.9,2000.5,148.8,686.4,1610.3,2003.5,223.4,75.7,25.1
0.069000,689.4,246.4,1586.4,701.9,2002.2,151.1,687.2,1603.9,2005.2,223.7,75.7,24.6
0.071000,688.4,243.9,1580.5,687.2,2004.7,152.6,687.9,1597.7,2006.8,223.9,75.7,23.9
0.073000,686.9,240.6,1573.4,664.5,2007.3,153.5,688.5,1591.8,2008.2,224.1,75.7,23.2
0.075000,685.6,238.3,1568.3,645.5,2009.3,155.6,689,1586.2,2009.4,224.3,75.7,22.6
0.077000,685.3,237.4,1567.3,639.8,2010.4,160.6,689.4,1581,2010.5,224.5,75.6,21.8
0.079000,685.8,237.3,1569.1,646.2,2011.2,169.4,689.6,1576.2,2011.5,224.8,75.6,21
0.081000,686.7,237.9,1572.5,657.9,2011.9,180.9,689.8,1571.8,2012.4,225,75.5,20.2
0.083000,687.5,237.8,1575.1,662.6,2012.8,191.7,689.9,1567.9,2013.3,225.2,75.5,19.6
0.085000,687.5,236.4,1574.8,655.1,2014.5,197.7,689.9,1564.4,2014.1,225.4,75.5,19.5
0.087000,687.2,234.2,1573.0,643.2,2016.9,198.6,689.8,1561.5,2014.8,225.6,75.4,20.1
0.089000,686.9,232.1,1570.8,632.7,2019.7,196.4,689.6,1559,2015.6,225.8,75.4,21.1
0.091000,686.4,230.1,1568.4,624.4,2022.0,193.1,689.4,1557.1,2016.4,226,75.4,22.3
0.093000,685.8,228.4,1567.2,618.6,2024.0,191.1,689.1,1555.7,2017.3,226.2,75.3,23.5
0.095000,685.2,226.3,1568.2,615.9,2026.1,191.8,688.7,1554.8,2018.4,226.4,75.3,24.5
0.097000,684.6,223.2,1570.2,613.3,2028.5,193.9,688.2,1554.4,2019.5,226.6,75.2,25.1
0.099000,683.9,220.0,1571.8,608.5,2031.2,195.1,687.8,1554.6,2020.8,226.7,75.2,25.7
0.101000,683.2,217.9,1571.7,602.2,2033.5,194.0,687.3,1555.2,2022.3,226.9,75.1,26.1
0.103000,682.6,217.5,1568.8,596.4,2035.1,191.1,686.7,1556.4,2024,227.1,75,26.4
0.105000,681.9,217.9,1562.8,591.9,2036.8,188.4,686.2,1558.1,2026,227.3,75,26.7
0.107000,681.3,218.9,1556.6,590.9,2038.6,188.4,685.6,1560.2,2028.1,227.5,74.9,26.9
0.109000,681.3,220.9,1555.3,597.8,2039.6,193.1,685.1,1562.8,2030.6,227.6,74.8,27
0.111000,682.3,224.5,1562.0,615.6,2039.3,202.3,684.6,1565.7,2033.2,227.8,74.8,27
0.113000,684.2,229.4,1576.0,644.9,2037.7,214.5,684.1,1569.1,2036.2,228,74.7,27
0.115000,686.2,233.2,1592.7,676.6,2036.0,226.5,683.7,1572.8,2039.3,228.2,74.6,27
0.117000,687.2,233.9,1607.1,699.7,2035.2,236.4,683.2,1576.9,2042.7,228.4,74.6,27.2
0.119000,686.3,231.1,1612.3,704.3,2035.6,242.3,682.9,1581.2,2046.3,228.5,74.5,27.4
0.121000,683.7,226.3,1604.4,690.3,2036.7,242.4,682.6,1585.8,2050,228.7,74.4,27.6
0.123000,680.8,221.9,1589.8,669.1,2037.8,239.1,682.3,1590.6,2053.9,228.9,74.3,27.5
0.125000,679.2,219.6,1580.2,655.0,2038.1,238.6,682.1,1595.6,2057.9,229.1,74.3,27.1
0.127000,679.1,218.3,1580.1,649.0,2037.8,244.9,681.9,1600.8,2062,229.3,74.3,26.2
0.129000,680.0,217.1,1587.9,644.4,2038.4,260.2,681.8,1606,2066,229.6,74.2,24.7
0.131000,681.7,216.8,1599.5,636.5,2042.1,286.6,681.8,1611.3,2070.1,229.8,74.2,23.1
0.133000,683.6,217.7,1608.3,621.9,2049.5,318.3,681.8,1616.6,2074,230,74.2,21.7
0.135000,685.0,218.8,1610.1,602.3,2057.6,343.9,681.9,1622,2077.8,230.2,74.1,20.9
0.137000,686.1,219.7,1610.6,585.0,2063.2,362.5,682,1627.2,2081.3,230.5,74.1,20.9
0.139000,687.1,220.2,1616.6,571.8,2068.5,386.2,682.2,1632.4,2084.6,230.7,74.1,21.3
0.141000,687.7,219.5,1626.4,558.8,2077.0,418.5,682.4,1637.5,2087.6,231,74,21.9
0.143000,687.3,217.2,1634.6,542.8,2088.7,454.4,682.6,1642.4,2090.2,231.2,74,22.7
0.145000,686.3,214.3,1639.3,527.1,2099.8,487.0,682.9,1647.1,2092.4,231.5,73.9,23.4
0.147000,685.6,212.9,1643.6,514.4,2107.8,519.2,683.2,1651.6,2094.1,231.8,73.9,24.2
0.149000,686.0,214.1,1651.0,502.1,2114.5,558.4,683.6,1655.8,2095.2,232,73.8,25.2
0.151000,687.3,217.2,1660.8,485.3,2124.5,607.1,683.9,1659.7,2095.8,232.3,73.8,26.2
0.153000,688.9,220.7,1669.6,463.1,2140.6,660.6,684.3,1663.4,2095.8,232.6,73.7,26.8
0.155000,690.0,222.8,1672.9,445.5,2154.9,698.7,684.6,1666.7,2095.1,232.9,73.7,26.9
0.157000,689.9,222.6,1670.0,438.4,2156.9,711.8,685,1669.6,2093.8,233.2,73.7,26.1
0.159000,688.8,220.1,1664.1,439.6,2144.6,702.9,685.4,1672.2,2091.8,233.5,73.6,24.6
0.161000,687.3,216.2,1660.9,441.2,2124.0,688.1,685.7,1674.4,2089.2,233.9,73.6,22.8
0.163000,686.3,212.2,1664.9,438.1,2100.0,685.9,686.1,1676.2,2085.9,234.2,73.6,21.2
0.165000,686.1,209.1,1674.6,428.8,2076.0,706.0,686.5,1677.6,2081.9,234.5,73.6,20.2
0.167000,686.1,206.9,1683.1,415.9,2058.8,737.4,686.8,1678.5,2077.3,234.9,73.6,20
0.169000,685.8,204.5,1685.8,406.0,2048.3,754.8,687.2,1679,2072.1,235.2,73.6,20.3
0.171000,685.3,202.0,1685.1,404.1,2040.0,748.2,687.5,1679.1,2066.4,235.6,73.6,20.8
0.173000,685.3,200.7,1686.8,406.8,2030.6,735.4,687.9,1678.7,2060.1,235.9,73.6,21.3
0.175000,686.0,200.6,1690.7,408.4,2022.1,727.9,688.2,1677.8,2053.4,236.3,73.6,21.5
0.177000,686.2,199.7,1689.5,407.4,2018.9,713.9,688.6,1676.5,2046.3,236.7,73.6,21.3
0.179000,685.4,196.1,1679.4,403.5,2022.0,683.9,689,1674.8,2038.8,237,73.6,20.8
0.181000,684.2,190.2,1667.5,396.4,2025.4,646.4,689.3,1672.6,2031.1,237.4,73.6,20.3
0.183000,683.6,183.8,1660.7,390.3,2023.5,604.6,689.8,1670,2023.2,237.8,73.6,19.9
0.185000,683.9,178.7,1659.0,388.4,2017.2,564.8,690.2,1667,2015.2,238.2,73.6,19.6
0.187000,684.7,175.4,1658.8,390.4,2010.7,534.2,690.7,1663.5,2007.1,238.6,73.6,19.6
0.189000,685.4,173.4,1657.1,396.2,2004.9,511.8,691.2,1659.7,1999.2,239,73.6,19.7
0.191000,685.9,172.2,1653.1,408.4,1997.8,485.4,691.8,1655.4,1991.4,239.4,73.6,19.9
0.193000,686.3,171.3,1647.3,428.3,1988.4,445.9,692.5,1650.8,1983.8,239.8,73.6,20.1
0.195000,686.7,170.5,1639.8,453.3,1977.3,394.3,693.2,1645.9,1976.6,240.3,73.6,20.2
0.197000,687.7,170.7,1634.0,481.8,1965.8,348.5,694,1640.6,1969.7,240.7,73.6,20.2
0.199000,690.0,174.0,1633.8,522.1,1953.0,319.1,694.8,1635,1963.4,241.1,73.6,20.3
0.201000,693.7,180.3,1638.2,583.2,1938.8,299.6,695.8,1629.2,1957.5,241.5,73.6,20.3
0.203000,698.2,188.0,1641.5,663.8,1926.0,277.5,696.8,1623,1952.3,242,73.6,20.4
0.205000,702.0,194.2,1640.7,738.0,1919.6,254.8,698,1616.7,1947.7,242.4,73.5,20.3
0.207000,705.2,199.0,1640.7,796.7,1918.3,237.0,699.2,1610.1,1943.8,242.8,73.5,20.2
0.209000,707.8,202.7,1643.2,836.6,1920.8,223.9,700.5,1603.4,1940.6,243.3,73.5,19.9
0.211000,710.0,205.9,1643.3,856.0,1926.2,210.8,702,1596.5,1938.2,243.7,73.4,19.7
0.213000,711.8,208.6,1637.2,859.2,1932.4,195.4,703.5,1589.5,1936.6,244.1,73.4,19.5
0.215000,712.8,210.5,1625.5,855.9,1937.7,179.2,705.1,1582.5,1935.7,244.6,73.3,19.4
0.217000,713.3,211.6,1607.6,850.9,1942.4,163.2,706.8,1575.3,1935.6,245,73.2,19.7
0.219000,713.1,211.7,1583.6,840.1,1947.1,148.4,708.5,1568.1,1936.3,245.4,73.2,20.1
0.221000,712.4,211.0,1555.4,821.1,1952.5,133.8,710.4,1561,1937.7,245.8,73,20.6
0.223000,711.6,209.9,1529.1,802.0,1957.8,120.5,712.3,1553.9,1939.8,246.2,72.9,21
0.225000,711.3,209.4,1509.8,791.8,1963.3,109.7,714.2,1546.8,1942.5,246.6,72.8,21.1
0.227000,711.9,210.2,1497.5,792.1,1969.1,101.2,716.2,1539.9,1945.9,247,72.6,20.8
0.229000,713.6,213.1,1489.2,802.5,1975.0,94.0,718.2,1533.1,1949.8,247.3,72.5,20.2
0.231000,716.3,217.9,1482.5,823.8,1979.6,88.5,720.2,1526.4,1954.1,247.7,72.3,19.5
0.233000,720.0,223.7,1475.0,857.1,1983.3,84.4,722.2,1520,1958.9,248,72.1,18.9
0.235000,724.5,229.3,1466.0,900.6,1986.6,81.8,724.3,1513.7,1963.9,248.3,72,18.8
0.237000,729.2,233.4,1456.7,950.2,1990.1,80.5,726.2,1507.8,1969.2,248.6,71.8,19.1
0.239000,733.2,234.8,1449.9,997.6,1993.5,80.6,728.1,1502.1,1974.6,248.9,71.6,19.9
0.241000,736.0,233.9,1447.5,1039.8,1996.2,82.2,730,1496.7,1980.1,249.2,71.4,20.8
0.243000,740.0,233.6,1449.8,1110.4,1997.4,85.5,731.8,1491.6,1985.5,249.4,71.2,21.7
0.245000,745.8,234.8,1454.9,1227.8,1997.0,89.5,733.5,1486.9,1990.9,249.6,71.1,22.4
0.247000,751.0,234.7,1460.2,1360.6,1996.7,93.0,735,1482.6,1996,249.8,70.9,23
0.249000,752.4,231.4,1463.9,1437.5,1998.4,95.6,736.5,1478.7,2000.8,250,70.8,23.5
0.251000,749.2,225.6,1464.2,1425.6,2002.2,97.4,737.8,1475.2,2005.2,250.2,70.7,23.9
0.253000,743.3,219.2,1462.2,1368.1,2006.3,98.4,739,1472.1,2009.2,250.4,70.5,24.2
0.255000,737.3,214.0,1463.3,1337.4,2008.1,99.2,740,1469.5,2012.7,250.5,70.4,24.3
0.257000,733.1,211.7,1471.9,1373.9,2006.5,100.7,740.8,1467.3,2015.6,250.6,70.3,24.2
0.259000,730.0,211.4,1487.7,1473.6,2002.1,102.9,741.5,1465.6,2018,250.7,70.2,24
0.261000,727.6,212.6,1511.5,1652.1,1995.8,106.1,741.9,1464.4,2019.7,250.8,70,23.6
0.263000,725.1,214.8,1552.5,1932.6,1987.5,110.2,742.2,1463.7,2020.7,250.9,69.8,22.9
0.265000,720.8,217.3,1629.1,2297.6,1977.5,115.0,742.3,1463.4,2021,251,69.6,21.8
