time,f1,b1,f2,b2,f3,b3,f1p,f2p,f3p,f0,intensity,harmonicity
0.025000,380.1,62.0,2726.1,99.5,3005.9,2294.2,385.1,2509.6,2853.1,225.8,71.2,9.5
0.027000,383.2,55.3,2728.0,123.3,2931.0,2213.9,385.8,2509.1,2853.1,225.4,71.8,10.4
0.029000,385.0,55.1,2732.0,153.5,2858.7,2333.2,386.9,2508.2,2853.2,225.1,72.3,11.7
0.031000,386.7,58.9,2746.2,187.4,2766.1,2481.6,388.4,2506.9,2853.3,224.7,72.6,13.2
0.033000,389.0,65.0,2632.4,2507.6,2775.5,213.5,390.3,2505.3,2853.5,224.3,72.8,14.7
0.035000,390.9,71.7,2495.3,2420.2,2804.6,225.6,392.7,2503.4,2853.6,224,73,16.2
0.037000,391.6,79.1,2385.7,2263.6,2819.5,234.3,395.4,2501.1,2853.9,223.6,73.1,17.6
0.039000,391.3,85.6,2345.1,2088.7,2812.6,242.2,398.6,2498.5,2854.1,223.2,73.2,19.1
0.041000,391.4,90.5,2377.9,1887.0,2796.7,251.0,402.1,2495.6,2854.5,222.8,73.2,20.6
0.043000,393.3,92.6,2428.9,1593.7,2795.8,268.5,406,2492.4,2854.9,222.5,73.2,21.9
0.045000,397.5,93.2,2436.8,1298.5,2821.7,289.6,410.2,2489,2855.4,222.1,73.1,22.8
0.047000,403.7,94.6,2407.2,1077.4,2866.2,292.4,414.8,2485.3,2856,221.8,73.1,23.3
0.049000,411.5,97.1,2368.8,915.6,2906.4,273.1,419.6,2481.3,2856.7,221.5,72.9,23.3
0.051000,419.8,99.1,2352.9,782.1,2923.5,258.4,424.8,2477.2,2857.5,221.1,72.8,23.2
0.053000,428.5,100.7,2367.1,670.3,2917.4,262.6,430.2,2472.8,2858.4,220.9,72.7,23.1
0.055000,437.5,102.7,2395.2,590.2,2894.8,279.7,435.9,2468.3,2859.4,220.6,72.6,23.1
0.057000,446.3,104.4,2413.5,545.1,2871.3,290.9,441.7,2463.6,2860.6,220.3,72.5,23.3
0.059000,455.4,104.4,2413.0,515.6,2860.6,286.3,447.8,2458.7,2862,220.1,72.5,23.6
0.061000,463.9,103.4,2403.4,491.9,2865.4,276.4,454,2453.8,2863.5,219.9,72.5,23.8
0.063000,472.0,104.0,2402.3,473.3,2875.6,279.9,460.4,2448.7,2865.1,219.7,72.5,24.1
0.065000,479.8,107.2,2416.9,461.4,2881.2,308.2,466.9,2443.5,2867,219.5,72.5,24.3
0.067000,486.6,110.5,2432.2,456.3,2875.3,344.6,473.5,2438.3,2869,219.4,72.6,24.4
0.069000,492.9,112.5,2436.7,459.5,2861.6,368.8,480.2,2433,2871.2,219.2,72.6,24.5
0.071000,499.1,114.5,2432.2,468.5,2850.8,382.6,486.9,2427.7,2873.6,219.1,72.7,24.6
0.073000,504.9,116.1,2420.6,467.8,2852.6,386.1,493.6,2422.4,2876.2,219,72.8,24.7
0.075000,510.7,116.9,2406.6,453.4,2864.7,380.1,500.3,2417,2879,219,72.8,24.7
0.077000,516.3,117.0,2396.4,438.5,2877.2,371.0,507,2411.6,2881.9,218.9,72.9,24.7
0.079000,522.3,116.8,2390.2,430.0,2885.9,365.5,513.6,2406.3,2885.1,218.9,73,24.6
0.081000,528.5,115.7,2386.9,423.0,2891.7,369.2,520.1,2401,2888.4,218.8,73.1,24.5
0.083000,534.3,113.8,2386.3,410.4,2895.5,385.3,526.6,2395.7,2891.9,218.8,73.2,24.4
0.085000,539.5,112.0,2388.0,391.9,2897.2,413.0,532.9,2390.4,2895.6,218.8,73.2,24.3
0.087000,544.1,111.0,2389.7,374.5,2894.4,443.4,539.1,2385.1,2899.5,218.8,73.3,24.3
0.089000,548.2,110.3,2386.1,363.5,2888.4,454.7,545.1,2379.9,2903.5,218.8,73.3,24.3
0.091000,552.7,109.6,2378.1,352.1,2890.2,445.7,550.9,2374.8,2907.7,218.9,73.4,24.3
0.093000,557.8,109.7,2370.7,335.1,2905.4,431.2,556.5,2369.6,2912,218.9,73.4,24.4
0.095000,562.7,109.9,2365.6,314.5,2924.8,416.9,562,2364.5,2916.5,218.9,73.5,24.4
0.097000,567.1,109.1,2362.0,289.7,2940.3,401.9,567.2,2359.4,2921,219,73.5,24.4
0.099000,570.4,107.6,2361.2,262.2,2951.1,388.4,572.1,2354.4,2925.6,219,73.5,24.4
0.101000,573.2,106.5,2363.5,233.8,2961.3,375.3,576.9,2349.4,2930.4,219.1,73.5,24.4
0.103000,576.1,106.0,2366.7,209.4,2970.2,362.6,581.3,2344.3,2935.1,219.2,73.6,24.4
0.105000,579.2,105.7,2368.2,194.1,2973.3,353.6,585.6,2339.3,2940,219.2,73.6,24.3
0.107000,582.4,104.7,2367.4,186.9,2969.2,348.6,589.5,2334.3,2944.8,219.3,73.6,24.2
0.109000,585.7,102.9,2365.3,184.8,2960.6,345.0,593.2,2329.3,2949.7,219.3,73.6,24
0.111000,588.8,101.7,2363.1,186.4,2953.2,342.7,596.6,2324.2,2954.5,219.4,73.6,23.7
0.113000,592.1,101.6,2359.1,191.8,2948.6,341.7,599.7,2319.1,2959.3,219.5,73.6,23.6
0.115000,595.3,102.4,2351.7,200.6,2946.0,341.5,602.6,2314,2964.1,219.5,73.7,23.7
0.117000,598.3,103.8,2341.6,212.0,2943.8,342.0,605.2,2308.8,2968.9,219.6,73.7,24
0.119000,600.6,105.9,2330.9,225.9,2940.1,343.8,607.6,2303.6,2973.5,219.6,73.7,24.6
0.121000,602.2,109.1,2323.0,241.6,2937.8,347.5,609.7,2298.3,2978.1,219.7,73.7,25.2
0.123000,603.6,114.0,2319.9,258.2,2942.3,354.3,611.6,2292.9,2982.5,219.7,73.7,25.8
0.125000,605.2,120.6,2321.1,274.4,2956.5,362.3,613.2,2287.5,2986.9,219.8,73.7,26.2
0.127000,606.9,126.6,2321.9,289.0,2974.5,363.4,614.6,2282,2991.1,219.8,73.7,26.3
0.129000,608.4,130.5,2317.5,304.5,2988.7,352.7,615.8,2276.4,2995.1,219.9,73.7,26.4
0.131000,609.9,133.2,2308.1,323.6,2998.3,334.3,616.8,2270.7,2999.1,219.9,73.7,26.3
0.133000,611.7,137.1,2298.9,346.3,3008.7,316.3,617.6,2264.9,3002.8,219.9,73.7,26.3
0.135000,613.9,144.7,2293.7,371.2,3025.7,299.0,618.2,2259.1,3006.4,219.9,73.7,26.3
0.137000,616.0,155.2,2290.7,391.4,3044.0,283.9,618.7,2253.1,3009.9,220,73.7,26.4
0.139000,617.8,167.0,2282.8,406.4,3056.4,277.8,619,2247.1,3013.1,220,73.7,26.5
0.141000,619.1,177.8,2264.9,418.0,3058.3,287.4,619.2,2241,3016.2,220,73.6,26.6
0.143000,619.6,183.3,2237.3,424.8,3047.2,307.6,619.2,2234.8,3019.1,220,73.6,26.7
0.145000,619.3,182.6,2204.2,423.4,3026.3,321.3,619.2,2228.6,3021.9,220,73.6,26.8
0.147000,618.6,178.5,2172.7,413.5,3005.6,314.0,619.1,2222.3,3024.5,220,73.6,27
0.149000,617.8,174.3,2148.1,401.9,2992.6,292.9,618.9,2216,3026.9,220,73.6,27.3
0.151000,616.8,170.9,2128.0,392.4,2985.1,269.5,618.6,2209.6,3029.2,220,73.6,27.5
0.153000,616.1,169.5,2112.6,389.0,2983.6,253.2,618.3,2203.3,3031.4,220,73.5,27.7
0.155000,616.1,172.1,2101.7,396.1,2988.9,246.7,618,2196.9,3033.4,220,73.5,27.8
0.157000,617.1,180.4,2098.2,414.4,3001.6,248.3,617.7,2190.5,3035.2,220,73.5,27.9
0.159000,619.3,193.9,2107.8,432.7,3019.6,250.2,617.3,2184.2,3037,220,73.5,28
0.161000,622.4,210.9,2129.1,436.2,3039.6,242.7,617,2177.9,3038.7,219.9,73.4,28
0.163000,625.8,229.4,2150.3,421.7,3057.1,223.9,616.7,2171.7,3040.2,219.9,73.4,28
0.165000,628.9,247.2,2161.0,403.2,3067.8,203.7,616.4,2165.5,3041.7,219.9,73.4,28
0.167000,630.4,260.7,2159.4,395.0,3070.3,192.5,616.1,2159.5,3043.2,219.9,73.4,27.8
0.169000,630.0,269.0,2150.6,400.3,3065.3,192.8,615.9,2153.5,3044.5,219.9,73.3,27.6
0.171000,628.9,274.8,2142.7,412.8,3058.3,198.2,615.7,2147.7,3045.9,219.9,73.3,27.4
0.173000,627.2,275.8,2134.6,430.0,3054.2,204.1,615.6,2142,3047.2,219.9,73.3,27.3
0.175000,624.8,271.0,2125.5,447.5,3054.8,207.4,615.5,2136.4,3048.5,219.9,73.2,27.4
0.177000,622.4,264.7,2118.7,459.9,3057.9,208.9,615.5,2131.1,3049.8,219.9,73.2,27.7
0.179000,620.2,261.5,2118.7,461.8,3061.8,211.3,615.5,2125.9,3051,219.9,73.2,28.3
0.181000,618.5,261.3,2123.1,453.0,3065.6,216.3,615.6,2120.9,3052.4,219.9,73.2,29
0.183000,616.3,259.6,2123.5,440.0,3068.4,224.4,615.7,2116.1,3053.7,219.9,73.2,29.6
0.185000,613.5,255.6,2118.0,428.0,3070.1,230.5,615.9,2111.6,3055.1,219.9,73.2,29.9
0.187000,612.0,254.6,2113.0,416.5,3071.1,224.2,616.2,2107.2,3056.5,219.9,73.2,29.8
0.189000,611.8,257.1,2108.2,405.1,3070.5,208.3,616.4,2103.1,3057.9,219.9,73.2,29.4
0.191000,612.2,260.3,2101.6,396.5,3069.5,191.7,616.7,2099.2,3059.4,220,73.2,29
0.193000,613.5,265.0,2097.9,390.5,3070.1,176.8,617,2095.5,3060.9,220,73.2,28.5
0.195000,616.7,274.3,2102.6,382.8,3072.7,160.4,617.3,2092.1,3062.5,220,73.3,28.2
0.197000,621.8,287.6,2114.8,369.9,3075.6,143.1,617.6,2088.8,3064.1,220,73.3,28
0.199000,628.4,303.3,2129.5,351.6,3077.2,126.7,617.9,2085.8,3065.8,220,73.3,27.8
0.201000,635.7,319.0,2142.3,332.5,3077.3,113.7,618.2,2083.1,3067.4,220,73.2,27.7
0.203000,639.2,326.7,2148.1,323.7,3076.0,107.9,618.4,2080.5,3069.2,220.1,73.2,27.7
0.205000,633.8,318.8,2143.4,333.0,3073.5,110.9,618.6,2078.1,3070.9,220.1,73.2,27.8
0.207000,623.1,299.1,2127.9,354.6,3069.8,121.2,618.7,2075.9,3072.6,220.1,73.2,28.2
0.209000,614.2,278.7,2107.1,376.5,3066.0,136.2,618.8,2073.9,3074.3,220.1,73.2,28.8
0.211000,608.3,262.8,2086.7,395.3,3062.1,155.6,618.7,2072,3076.1,220.2,73.1,29.4
0.213000,605.5,254.2,2075.0,406.8,3059.6,175.2,618.5,2070.3,3077.7,220.2,73.1,30
0.215000,605.0,252.5,2073.7,407.0,3059.9,189.3,618.2,2068.6,3079.4,220.2,73.1,30.3
0.217000,606.2,258.1,2078.2,393.2,3062.9,191.7,617.8,2067.1,3080.9,220.3,73.1,30.4
0.219000,608.2,268.4,2080.6,371.6,3066.0,182.7,617.2,2065.7,3082.4,220.3,73.1,30.2
0.221000,610.1,279.4,2079.4,350.3,3068.6,168.7,616.5,2064.3,3083.8,220.3,73.1,29.9
0.223000,611.2,286.1,2076.8,335.4,3072.1,156.9,615.6,2063,3085.1,220.4,73.1,29.6
0.225000,609.8,282.5,2072.4,331.9,3076.1,155.2,614.5,2061.7,3086.3,220.4,73.1,29.4
0.227000,605.1,266.7,2062.1,338.7,3079.1,166.8,613.2,2060.3,3087.3,220.5,73.1,29.4
0.229000,598.8,243.9,2045.0,348.8,3078.8,189.8,611.8,2059,3088.1,220.5,73.1,29.4
0.231000,594.3,226.7,2030.9,355.7,3076.4,210.3,610.1,2057.6,3088.8,220.6,73.1,29.5
0.233000,592.1,217.8,2025.1,362.4,3075.6,218.0,608.2,2056.2,3089.3,220.6,73.1,29.6
0.235000,591.8,214.6,2026.6,367.5,3079.0,209.5,606.1,2054.6,3089.6,220.7,73.1,29.6
0.237000,592.2,214.7,2033.2,368.3,3085.5,187.9,603.8,2053,3089.6,220.8,73.1,29.6
0.239000,592.2,214.1,2040.2,364.8,3090.3,163.8,601.2,2051.3,3089.5,220.8,73.2,29.7
0.241000,590.1,207.3,2039.7,361.0,3088.8,151.5,598.5,2049.4,3089.1,220.9,73.2,29.7
0.243000,586.2,194.2,2031.6,356.2,3081.3,151.1,595.5,2047.4,3088.5,220.9,73.2,29.7
0.245000,582.4,181.6,2023.7,347.5,3071.9,153.8,592.3,2045.3,3087.6,221,73.2,29.8
0.247000,579.9,174.9,2021.2,340.0,3066.8,155.2,588.9,2043,3086.4,221.1,73.2,30
0.249000,578.1,174.3,2021.2,338.5,3067.0,158.4,585.3,2040.5,3085.1,221.1,73.2,30.2
0.251000,576.3,178.2,2020.5,344.3,3071.1,165.7,581.5,2037.8,3083.4,221.2,73.2,30.5
0.253000,574.2,183.5,2018.6,352.2,3077.2,178.2,577.5,2035,3081.5,221.3,73.2,30.6
0.255000,571.8,186.6,2017.6,353.6,3083.7,195.4,573.3,2032.1,3079.4,221.3,73.2,30.6
0.257000,569.6,185.1,2018.2,345.3,3088.3,210.3,569,2028.9,3077.1,221.4,73.2,30.1
0.259000,568.0,180.6,2019.4,334.3,3089.7,216.7,564.6,2025.6,3074.5,221.4,73.2,29.4
0.261000,566.9,176.3,2019.9,329.4,3088.6,213.0,560,2022.1,3071.7,221.5,73.2,28.6
0.263000,565.6,172.9,2017.1,333.0,3085.3,204.8,555.3,2018.5,3068.7,221.6,73.2,28
0.265000,563.3,168.5,2008.7,337.5,3079.7,197.1,550.6,2014.8,3065.5,221.6,73.2,27.6
0.267000,559.8,162.1,1997.2,332.1,3072.1,191.7,545.7,2010.9,3062.1,221.7,73.2,27.8
0.269000,556.1,155.4,1990.2,315.3,3064.1,190.9,540.9,2007,3058.6,221.7,73.2,28.3
0.271000,552.6,150.8,1989.7,298.3,3057.8,194.1,536,2003,3055,221.8,73.2,28.9
0.273000,550.1,150.3,1992.4,293.2,3056.6,196.4,531,1998.9,3051.3,221.8,73.2,29.5
0.275000,547.8,152.2,1993.6,298.4,3059.7,194.1,526.2,1994.7,3047.5,221.9,73.2,29.9
0.277000,544.8,153.1,1990.9,304.0,3063.6,187.1,521.3,1990.6,3043.7,221.9,73.2,30
0.279000,541.0,150.7,1985.3,300.5,3065.0,180.1,516.5,1986.4,3039.8,222,73.2,29.9
0.281000,536.2,147.6,1980.3,291.3,3064.9,178.4,511.9,1982.3,3035.9,222.1,73.2,29.8
0.283000,530.9,147.4,1979.0,285.2,3064.5,186.7,507.3,1978.3,3032.1,222.1,73.2,29.6
0.285000,525.7,151.3,1982.6,286.1,3063.5,204.9,502.9,1974.3,3028.3,222.2,73.2,29.5
0.287000,520.5,157.4,1989.9,290.8,3060.5,228.8,498.6,1970.4,3024.6,222.2,73.2,29.6
0.289000,515.4,161.2,1995.5,293.2,3054.9,248.9,494.5,1966.7,3021.1,222.2,73.2,29.6
0.291000,509.8,159.7,1994.1,289.9,3045.3,261.7,490.6,1963.1,3017.6,222.3,73.2,29.7
0.293000,503.0,154.3,1985.3,283.9,3033.9,265.9,487,1959.7,3014.4,222.3,73.2,29.7
0.295000,495.6,149.3,1973.1,282.4,3025.6,263.0,483.6,1956.5,3011.3,222.4,73.2,29.6
0.297000,487.5,146.4,1959.9,286.2,3018.4,256.8,480.5,1953.6,3008.4,222.4,73.2,29.3
0.299000,479.4,145.3,1950.4,288.4,3006.4,253.0,477.6,1950.9,3005.8,222.5,73.2,29
0.301000,471.9,145.2,1949.5,281.4,2987.5,257.7,475,1948.4,3003.4,222.5,73.2,28.6
0.303000,464.6,145.8,1953.2,268.5,2966.3,269.6,472.8,1946.3,3001.3,222.6,73.2,28.2
0.305000,456.3,146.7,1954.3,256.8,2952.7,283.0,470.9,1944.4,2999.6,222.6,73.2,28
0.307000,447.7,146.8,1949.4,248.7,2952.9,290.8,469.3,1942.9,2998.1,222.7,73.2,28
0.309000,438.6,146.3,1939.9,243.5,2962.7,295.3,468,1941.7,2996.9,222.7,73.1,28.1
0.311000,429.9,146.4,1931.2,240.8,2972.8,304.0,467.1,1940.8,2996.1,222.7,73.1,28.3
0.313000,420.8,145.9,1926.3,236.6,2974.5,320.2,466.6,1940.3,2995.5,222.8,73.1,28.5
0.315000,410.6,143.5,1925.9,228.4,2962.1,343.9,466.4,1940.1,2995.4,222.8,73.1,28.7
