time,f1,b1,f2,b2,f3,b3,f1p,f2p,f3p,f0,intensity,harmonicity
0.025000,689.3,66.1,1915.3,160.0,2718.7,1660.7,695.6,1987.5,2773.6,237.9,76.3,10.1
0.027000,696.3,65.2,1931.2,162.7,2721.9,1722.1,696.2,1986.9,2772.1,237.6,76.6,11.4
0.029000,702.4,65.4,1946.6,167.6,2746.9,1622.5,697.3,1985.9,2769.6,237.4,76.9,12.9
0.031000,707.5,66.2,1957.5,174.5,2756.6,1481.1,698.7,1984.5,2766,237.1,77.2,14.3
0.033000,711.2,67.3,1962.8,179.9,2749.8,1350.3,700.5,1982.8,2761.5,236.9,77.4,15.5
0.035000,714.0,69.7,1965.7,179.7,2753.3,1263.2,702.7,1980.6,2756.1,236.6,77.5,16.5
0.037000,716.3,74.7,1970.4,174.8,2772.5,1215.5,705.3,1978.2,2749.7,236.4,77.6,17
0.039000,718.3,82.2,1978.0,170.4,2786.6,1175.0,708.3,1975.3,2742.5,236.1,77.6,17.3
0.041000,720.5,91.7,1987.6,169.2,2791.0,1126.3,711.6,1972.1,2734.4,235.8,77.6,17.3
0.043000,722.6,101.7,1996.2,169.5,2787.6,1066.0,715.2,1968.7,2725.6,235.6,77.5,17.3
0.045000,724.0,109.4,2001.2,168.7,2776.3,1005.5,719.1,1964.9,2716.1,235.3,77.4,17.2
0.047000,724.4,113.7,2002.0,166.4,2758.3,958.3,723.4,1960.8,2705.8,235.1,77.2,17.1
0.049000,724.8,116.0,1999.8,165.7,2732.5,930.6,727.9,1956.5,2695,234.8,77,16.8
0.051000,726.5,118.9,1996.2,170.8,2697.7,917.1,732.7,1952,2683.7,234.6,76.8,16.5
0.053000,729.8,125.1,1991.2,181.5,2661.0,900.6,737.8,1947.2,2671.8,234.4,76.6,16.4
0.055000,734.1,137.1,1984.4,192.6,2636.0,868.2,743,1942.3,2659.6,234.1,76.4,16.5
0.057000,738.9,155.8,1974.6,199.3,2621.7,816.7,748.5,1937.2,2647.1,233.9,76.3,16.9
0.059000,743.8,179.1,1961.4,202.0,2604.8,751.8,754.1,1931.9,2634.3,233.8,76.1,17.6
0.061000,749.4,204.9,1947.1,202.4,2585.5,691.9,759.8,1926.6,2621.3,233.6,76,18.4
0.063000,756.4,231.6,1934.4,202.6,2569.4,650.4,765.7,1921.2,2608.2,233.5,75.8,19.2
0.065000,764.6,257.2,1923.8,204.3,2557.3,625.1,771.7,1915.7,2595.1,233.3,75.7,19.8
0.067000,772.8,279.2,1913.6,206.9,2547.0,603.0,777.7,1910.1,2582,233.2,75.6,20.3
0.069000,779.6,296.1,1902.3,208.2,2537.0,574.0,783.8,1904.6,2569.1,233.1,75.6,20.7
0.071000,784.7,308.8,1889.9,207.3,2527.0,539.1,789.9,1899.1,2556.4,233.1,75.5,21.1
0.073000,788.9,319.8,1877.6,204.8,2516.4,505.0,796,1893.6,2543.9,233,75.4,21.4
0.075000,793.6,330.5,1867.0,202.4,2505.7,476.9,802,1888.2,2531.7,233,75.4,21.6
0.077000,799.8,341.5,1859.4,201.5,2497.0,458.3,808,1882.9,2520,233,75.3,21.7
0.079000,807.4,353.1,1855.3,203.2,2492.5,452.5,813.9,1877.7,2508.7,233,75.3,21.6
0.081000,815.4,366.0,1853.4,208.6,2492.0,461.3,819.7,1872.7,2497.9,233.1,75.2,21.6
0.083000,822.5,378.2,1851.6,217.1,2493.1,479.3,825.4,1867.7,2487.6,233.1,75.2,21.6
0.085000,828.0,384.2,1847.3,224.8,2493.4,491.1,831,1863,2478,233.2,75.2,22
0.087000,831.9,382.5,1840.1,227.9,2493.7,486.3,836.4,1858.4,2469,233.3,75.2,22.8
0.089000,835.8,378.9,1831.9,226.1,2495.8,471.5,841.6,1854,2460.7,233.4,75.2,24
0.091000,840.7,380.8,1825.5,222.8,2500.3,461.1,846.6,1849.9,2453.1,233.6,75.2,25.3
0.093000,847.4,392.2,1822.3,222.1,2506.4,465.5,851.4,1845.9,2446.3,233.7,75.2,26.3
0.095000,855.4,410.4,1821.7,224.9,2509.8,483.6,856,1842.2,2440.2,233.9,75.2,26.8
0.097000,863.2,428.2,1821.9,230.0,2504.8,507.9,860.4,1838.8,2434.9,234.1,75.2,26.5
0.099000,869.7,440.3,1821.6,235.6,2490.4,532.3,864.5,1835.5,2430.4,234.3,75.3,25.6
0.101000,874.6,446.5,1820.2,241.1,2470.7,554.4,868.3,1832.6,2426.7,234.5,75.3,24.4
0.103000,879.1,455.2,1819.7,248.5,2451.8,583.7,871.9,1829.9,2423.8,234.7,75.3,23.3
0.105000,884.6,474.6,1822.3,259.4,2434.8,631.6,875.2,1827.4,2421.7,234.9,75.4,22.4
0.107000,890.4,501.9,1827.5,272.2,2415.4,693.5,878.3,1825.2,2420.3,235.1,75.4,21.8
0.109000,895.8,532.1,1834.0,285.7,2392.9,760.1,881,1823.2,2419.7,235.3,75.4,21.2
0.111000,901.8,562.4,1840.9,299.2,2374.5,828.0,883.5,1821.5,2419.8,235.6,75.5,20.8
0.113000,908.0,586.7,1846.2,307.7,2369.5,887.5,885.7,1820,2420.7,235.8,75.5,20.4
0.115000,912.2,597.2,1847.4,305.7,2380.0,923.9,887.6,1818.8,2422.2,236,75.5,20.2
0.117000,913.8,594.2,1845.4,295.1,2397.4,938.4,889.3,1817.7,2424.4,236.3,75.5,20.3
0.119000,913.5,583.9,1842.1,283.4,2408.6,939.6,890.7,1816.9,2427.1,236.5,75.6,20.5
0.121000,910.0,567.8,1837.1,274.9,2403.9,914.8,891.8,1816.3,2430.4,236.8,75.6,20.8
0.123000,902.0,543.5,1829.6,266.3,2386.3,847.7,892.6,1815.9,2434.2,237,75.7,21.1
0.125000,892.7,514.3,1822.5,253.4,2372.9,764.3,893.2,1815.7,2438.5,237.3,75.7,21.3
0.127000,886.1,489.7,1819.4,238.2,2374.3,706.5,893.6,1815.6,2443.2,237.5,75.8,21.5
0.129000,882.7,473.8,1819.5,225.1,2390.6,682.1,893.8,1815.7,2448.2,237.7,75.8,21.7
0.131000,880.4,460.8,1819.9,213.8,2416.4,670.2,893.7,1816,2453.6,238,75.8,21.9
0.133000,878.2,446.2,1819.4,203.6,2443.9,657.6,893.4,1816.3,2459.2,238.2,75.8,22.1
0.135000,876.0,430.8,1818.4,195.7,2467.4,650.8,892.9,1816.8,2464.9,238.4,75.8,22.4
0.137000,874.0,417.9,1817.1,192.0,2485.6,662.1,892.3,1817.4,2470.8,238.6,75.7,22.8
0.139000,872.5,410.1,1815.3,192.1,2497.9,692.6,891.4,1818,2476.8,238.8,75.6,23.3
0.141000,871.8,407.8,1813.3,194.1,2503.1,728.3,890.4,1818.8,2482.8,239,75.6,23.8
0.143000,872.4,410.0,1812.7,195.4,2504.7,753.6,889.3,1819.6,2488.7,239.3,75.6,24.2
0.145000,874.0,411.8,1813.6,193.6,2508.3,760.3,888.1,1820.4,2494.6,239.4,75.6,24.3
0.147000,875.6,408.3,1815.4,187.6,2517.4,750.0,886.7,1821.2,2500.3,239.6,75.6,23.9
0.149000,877.5,399.8,1817.5,179.0,2531.4,730.8,885.3,1822.1,2505.9,239.8,75.7,23.2
0.151000,879.6,390.0,1819.5,171.1,2545.1,707.6,883.7,1823,2511.2,240,75.7,22.4
0.153000,880.8,379.3,1820.4,165.5,2552.5,678.5,882.1,1823.8,2516.3,240.2,75.7,21.6
0.155000,880.4,366.6,1820.3,161.2,2555.3,644.2,880.4,1824.7,2521,240.4,75.8,21.1
0.157000,879.2,352.8,1820.7,157.0,2560.5,614.9,878.7,1825.5,2525.4,240.5,75.8,20.7
0.159000,878.2,340.9,1823.2,153.2,2569.7,606.3,877,1826.3,2529.4,240.7,75.7,20.3
0.161000,877.9,334.2,1827.7,151.3,2579.1,629.9,875.2,1827.1,2533,240.8,75.7,20.1
0.163000,878.2,333.1,1832.8,151.3,2586.2,685.7,873.5,1827.8,2536.1,241,75.7,20.1
0.165000,878.4,334.4,1836.5,151.8,2591.7,750.1,871.7,1828.4,2538.8,241.1,75.6,20.6
0.167000,876.7,330.9,1837.0,151.5,2591.8,778.8,870,1829,2541.1,241.2,75.6,21.6
0.169000,872.9,320.8,1834.6,151.0,2582.7,754.6,868.3,1829.5,2542.9,241.4,75.5,23.2
0.171000,869.1,309.6,1831.1,151.5,2568.3,705.0,866.6,1830,2544.1,241.5,75.5,25
0.173000,867.0,303.2,1827.6,153.5,2554.4,660.9,864.9,1830.4,2545,241.6,75.4,26.6
0.175000,867.0,304.2,1825.5,157.3,2544.9,641.5,863.3,1830.8,2545.3,241.7,75.4,27.7
0.177000,868.2,311.4,1826.0,162.8,2541.1,653.5,861.7,1831.1,2545.1,241.8,75.3,28.2
0.179000,869.1,318.5,1828.3,167.6,2541.3,682.6,860.2,1831.3,2544.5,242,75.3,28.4
0.181000,868.0,317.8,1829.8,168.9,2541.3,702.5,858.8,1831.5,2543.5,242.1,75.2,28.3
0.183000,864.9,309.0,1829.2,166.8,2536.9,703.9,857.4,1831.7,2542,242.2,75.1,28.1
0.185000,860.5,296.6,1826.4,164.2,2525.0,696.0,856.1,1831.8,2540.1,242.3,75,27.8
0.187000,855.0,283.7,1821.9,163.2,2504.0,684.1,854.8,1831.8,2537.9,242.4,75,27.2
0.189000,849.5,272.2,1817.0,163.7,2478.3,668.9,853.6,1831.9,2535.3,242.5,74.9,26.4
0.191000,845.8,265.6,1814.3,165.3,2456.2,659.6,852.5,1831.9,2532.4,242.6,74.9,25.4
0.193000,844.8,265.8,1815.1,167.9,2439.6,665.5,851.4,1831.9,2529.2,242.7,74.9,24.7
0.195000,845.5,269.6,1817.9,171.2,2422.9,681.8,850.3,1831.9,2525.8,242.8,74.9,24.3
0.197000,846.1,273.6,1821.0,175.0,2402.8,702.4,849.3,1831.9,2522.2,243,74.9,24.6
0.199000,846.0,276.0,1823.3,178.5,2384.8,724.5,848.4,1831.9,2518.4,243.1,74.9,25.3
0.201000,845.4,275.9,1824.8,179.9,2379.8,745.7,847.5,1831.9,2514.5,243.2,74.9,26.2
0.203000,845.0,273.9,1826.3,178.5,2394.4,767.3,846.7,1831.9,2510.6,243.3,74.9,27.1
0.205000,845.4,273.5,1830.0,175.7,2425.8,798.2,845.8,1832,2506.6,243.5,74.9,27.6
0.207000,846.8,276.6,1836.5,172.7,2468.2,842.2,845,1832.2,2502.7,243.6,74.8,27.7
0.209000,847.8,280.0,1843.6,168.7,2516.1,877.9,844.3,1832.4,2498.8,243.8,74.8,27.7
0.211000,846.5,277.4,1847.6,163.5,2554.4,871.7,843.5,1832.6,2495.1,244,74.8,27.5
0.213000,843.4,268.4,1847.4,157.6,2575.1,826.3,842.7,1832.9,2491.5,244.1,74.7,27.3
0.215000,841.3,259.5,1846.0,152.0,2587.7,780.8,841.9,1833.4,2488.2,244.3,74.7,27.2
0.217000,840.9,254.3,1845.4,148.3,2590.1,759.2,841.2,1833.8,2485,244.5,74.7,27.2
0.219000,841.7,253.2,1846.5,147.1,2579.0,766.1,840.3,1834.4,2482.2,244.7,74.8,27.3
0.221000,843.4,256.0,1849.3,147.5,2563.7,795.3,839.5,1835.1,2479.8,244.9,74.8,27.3
0.223000,845.5,260.0,1852.5,147.3,2561.1,830.4,838.6,1835.9,2477.7,245.1,74.8,27.2
0.225000,847.2,262.5,1854.9,145.3,2579.9,854.9,837.7,1836.8,2476,245.3,74.9,27
0.227000,848.2,262.3,1857.0,142.4,2605.3,857.4,836.7,1837.8,2474.8,245.6,74.9,26.5
0.229000,847.5,258.6,1858.6,139.5,2611.0,833.8,835.7,1838.9,2474,245.8,74.9,25.8
0.231000,844.9,251.4,1859.1,137.6,2587.4,792.3,834.6,1840.2,2473.8,246.1,74.9,24.9
0.233000,841.2,243.4,1858.1,137.8,2550.3,748.7,833.5,1841.6,2474,246.3,74.9,24.2
0.235000,837.3,236.1,1856.3,140.2,2517.0,712.6,832.2,1843.1,2474.9,246.6,74.9,23.6
0.237000,833.4,228.3,1854.2,143.6,2493.2,681.1,830.9,1844.7,2476.3,246.9,74.8,23.3
0.239000,829.2,217.1,1851.5,145.9,2474.9,643.3,829.5,1846.4,2478.2,247.2,74.7,23.1
0.241000,824.4,201.1,1847.6,145.5,2456.8,593.5,828,1848.3,2480.8,247.4,74.7,23
0.243000,819.6,183.0,1842.8,143.1,2438.8,542.6,826.4,1850.2,2484,247.7,74.6,22.8
0.245000,815.6,168.0,1837.9,141.7,2423.0,506.4,824.7,1852.3,2487.8,248,74.5,22.4
0.247000,812.8,158.7,1833.9,144.1,2411.6,491.4,822.9,1854.5,2492.2,248.3,74.5,21.5
0.249000,811.1,153.8,1832.6,149.9,2409.3,498.7,821.1,1856.8,2497.2,248.6,74.4,20.4
0.251000,809.9,150.5,1835.7,155.7,2422.2,528.9,819.1,1859.2,2502.8,248.9,74.3,19.2
0.253000,808.8,147.2,1843.5,158.8,2453.1,581.9,817,1861.7,2509,249.1,74.3,18.2
0.255000,807.2,143.4,1853.3,159.2,2495.7,651.7,814.8,1864.3,2515.7,249.4,74.2,17.8
0.257000,805.2,139.0,1862.3,159.3,2536.6,728.8,812.5,1867,2523,249.7,74.1,18
0.259000,802.2,131.9,1867.3,162.0,2553.3,794.4,810.2,1869.7,2530.9,249.9,74.1,18.6
0.261000,798.5,121.9,1868.1,169.9,2532.3,839.1,807.7,1872.5,2539.2,250.1,74.1,19.5
0.263000,795.1,111.4,1866.6,182.6,2486.1,855.9,805.2,1875.4,2548.1,250.4,74.1,20.6
0.265000,792.3,102.0,1864.3,197.2,2437.3,842.7,802.6,1878.4,2557.4,250.6,74.2,21.7
0.267000,790.1,94.1,1863.8,207.9,2410.3,823.3,799.9,1881.3,2567.1,250.7,74.2,23
0.269000,788.5,86.8,1866.7,208.0,2423.2,820.3,797.1,1884.3,2577.2,250.9,74.3,24.6
0.271000,787.0,79.3,1871.6,197.4,2477.7,825.2,794.3,1887.4,2587.7,251.1,74.4,26.2
0.273000,785.5,72.4,1876.6,184.4,2550.6,815.6,791.4,1890.4,2598.4,251.2,74.5,27.6
0.275000,783.8,66.0,1879.8,176.1,2606.0,779.0,788.5,1893.5,2609.5,251.3,74.6,28.4
0.277000,782.0,60.2,1881.2,173.7,2628.3,731.5,785.5,1896.5,2620.8,251.4,74.7,28.7
0.279000,780.3,55.3,1883.9,175.1,2631.6,700.9,782.5,1899.6,2632.3,251.4,74.8,28.4
0.281000,778.8,51.4,1890.1,176.6,2636.1,698.3,779.5,1902.6,2643.9,251.5,74.9,27.9
0.283000,777.5,48.5,1898.2,174.1,2651.5,713.5,776.4,1905.6,2655.6,251.5,75,27.3
0.285000,776.5,46.6,1906.0,166.1,2679.0,730.1,773.4,1908.6,2667.4,251.5,75.2,26.9
0.287000,776.0,45.9,1914.0,154.4,2714.9,743.4,770.4,1911.5,2679.2,251.4,75.3,26.6
0.289000,775.9,46.5,1924.0,141.5,2755.5,760.8,767.3,1914.4,2690.9,251.3,75.5,26.3
0.291000,776.1,47.7,1935.9,128.6,2801.4,783.9,764.4,1917.2,2702.6,251.2,75.6,26.1
0.293000,775.9,48.5,1947.2,115.9,2851.6,794.2,761.4,1919.9,2714.1,251.1,75.8,25.9
0.295000,774.9,47.9,1955.1,104.8,2891.3,775.1,758.5,1922.6,2725.4,250.9,75.9,25.9
0.297000,773.0,45.6,1959.1,96.7,2903.7,738.3,755.7,1925.2,2736.5,250.8,76,26
0.299000,770.6,42.3,1960.4,91.2,2889.1,700.6,752.9,1927.6,2747.4,250.6,76.2,26.4
0.301000,768.0,39.1,1960.7,86.5,2863.6,666.6,750.3,1930,2757.9,250.3,76.3,26.7
0.303000,765.3,36.6,1961.1,81.3,2842.9,640.0,747.7,1932.3,2768.1,250.1,76.4,27
0.305000,762.5,34.5,1961.1,75.7,2829.1,622.7,745.2,1934.5,2777.9,249.8,76.5,27
0.307000,759.5,32.4,1960.3,70.4,2817.4,612.5,742.8,1936.5,2787.3,249.5,76.6,26.7
0.309000,756.5,30.3,1959.5,66.2,2804.9,613.5,740.6,1938.5,2796.1,249.2,76.7,26.3
0.311000,753.6,28.5,1959.3,63.9,2787.2,631.3,738.4,1940.3,2804.5,248.9,76.8,25.7
0.313000,750.6,27.0,1959.2,63.3,2762.9,660.3,736.4,1942,2812.4,248.5,76.9,24.9
0.315000,747.3,25.7,1958.2,63.2,2739.8,683.3,734.6,1943.5,2819.6,248.2,76.9,24
0.317000,743.5,24.6,1955.3,62.3,2728.6,686.2,732.9,1944.9,2826.3,247.8,76.9,22.7
0.319000,739.0,23.8,1950.3,59.9,2731.8,669.9,731.4,1946.2,2832.3,247.4,76.9,21.1
0.321000,733.9,23.3,1944.6,56.4,2743.7,641.4,730,1947.3,2837.7,247.1,76.8,19.4
0.323000,728.4,23.2,1939.1,52.7,2758.3,604.2,728.8,1948.3,2842.4,246.7,76.7,17.8
0.325000,722.2,23.4,1934.2,49.4,2773.4,565.0,727.8,1949.2,2846.4,246.3,76.4,16.3
0.327000,715.0,24.2,1929.5,47.4,2792.0,533.3,727,1949.8,2849.7,246,76,15.1
0.329000,706.6,26.1,1924.4,47.2,2820.2,514.6,726.3,1950.4,2852.3,245.6,75.5,14.1
0.331000,696.9,29.2,1918.2,48.7,2859.6,502.9,725.8,1950.8,2854.2,245.3,74.9,13.1
0.333000,685.9,32.8,1910.1,51.8,2899.5,484.5,725.6,1951,2855.3,244.9,74,12.1
0.335000,673.5,35.7,1898.9,56.2,2927.0,457.8,725.5,1951.1,2855.7,244.6,73,11.1
