time,f1,b1,f2,b2,f3,b3,f1p,f2p,f3p,f0,intensity,harmonicity
0.026000,447.6,35.7,2036.2,138.5,2760.7,140.2,451.4,2052.4,2730,230.1,74.2,8.8
0.028000,448.3,33.3,2040.3,129.3,2751.6,139.9,451.5,2052.4,2730.2,230.2,74.5,11.9
0.030000,448.7,31.6,2042.6,117.3,2738.8,137.1,451.5,2052.5,2730.6,230.3,74.8,15.7
0.032000,449.3,30.6,2044.3,108.2,2728.3,132.9,451.5,2052.6,2731.1,230.4,75,19.4
0.034000,449.9,30.2,2045.9,102.2,2722.4,128.0,451.6,2052.8,2731.8,230.5,75.2,22.6
0.036000,450.3,30.0,2047.1,100.1,2720.7,124.0,451.7,2053,2732.6,230.7,75.3,24.6
0.038000,450.3,29.8,2048.4,101.0,2720.7,120.7,451.8,2053.2,2733.6,230.8,75.5,25.8
0.040000,450.4,29.7,2050.0,103.1,2721.4,117.2,451.9,2053.4,2734.6,230.9,75.5,26.4
0.042000,450.7,29.7,2052.4,104.5,2723.5,112.2,452,2053.7,2735.8,231.1,75.6,26.7
0.044000,451.3,29.8,2054.9,105.4,2726.7,106.7,452.1,2053.9,2737.1,231.2,75.6,27.1
0.046000,452.0,30.0,2057.2,107.6,2730.1,101.4,452.2,2054.2,2738.4,231.4,75.7,27.7
0.048000,452.4,30.3,2058.8,110.7,2732.0,96.9,452.4,2054.5,2739.8,231.5,75.7,28.4
0.050000,452.7,30.7,2060.0,113.4,2733.2,92.3,452.5,2054.8,2741.2,231.7,75.7,29.2
0.052000,453.0,31.0,2060.7,114.3,2735.1,87.3,452.7,2055,2742.6,231.9,75.8,29.8
0.054000,453.5,31.4,2060.5,114.5,2737.9,82.5,452.8,2055.3,2744,232.1,75.8,30.2
0.056000,454.3,32.0,2059.3,115.3,2740.9,78.8,453,2055.5,2745.5,232.2,75.8,30.5
0.058000,454.9,32.6,2057.7,116.1,2742.9,77.1,453.2,2055.7,2746.9,232.4,75.9,30.4
0.060000,455.4,33.2,2056.7,116.2,2744.7,76.9,453.4,2055.9,2748.2,232.6,75.9,30.2
0.062000,455.6,33.6,2056.4,116.1,2747.3,77.4,453.6,2056.1,2749.5,232.8,75.9,30
0.064000,455.7,34.1,2056.9,117.3,2751.1,78.1,453.7,2056.2,2750.7,233,75.9,29.8
0.066000,456.0,34.6,2058.5,119.8,2754.7,78.8,453.9,2056.2,2751.8,233.2,75.9,29.8
0.068000,456.4,35.2,2061.7,122.5,2757.3,78.9,454.1,2056.2,2752.8,233.4,75.9,29.8
0.070000,456.8,35.7,2064.6,124.2,2759.5,78.2,454.3,2056.1,2753.6,233.6,75.9,29.9
0.072000,457.0,36.3,2065.1,124.6,2762.5,76.6,454.5,2056,2754.4,233.8,75.9,30.1
0.074000,457.2,36.8,2063.2,123.8,2765.5,75.0,454.7,2055.7,2755,234,75.9,30.3
0.076000,457.3,37.4,2060.9,120.9,2767.7,73.8,454.9,2055.4,2755.4,234.2,75.9,30.6
0.078000,457.3,38.0,2059.9,116.6,2768.4,73.6,455,2055,2755.7,234.4,75.9,31
0.080000,457.2,38.8,2059.8,112.0,2768.5,74.1,455.2,2054.4,2755.8,234.6,75.9,31.4
0.082000,457.2,39.5,2059.4,109.5,2768.7,74.8,455.4,2053.8,2755.8,234.7,75.8,31.9
0.084000,457.1,40.5,2057.9,110.3,2769.1,75.5,455.5,2053,2755.6,234.9,75.8,32.2
0.086000,457.1,41.6,2055.3,114.6,2768.7,76.3,455.7,2052.2,2755.3,235.1,75.8,32.5
0.088000,457.0,42.7,2052.7,120.8,2767.2,77.1,455.8,2051.2,2754.9,235.3,75.8,32.5
0.090000,457.0,43.8,2050.7,127.5,2764.5,77.8,455.9,2050.1,2754.2,235.5,75.8,32.6
0.092000,457.1,44.8,2049.8,133.1,2761.0,78.5,456,2048.8,2753.5,235.7,75.7,32.6
0.094000,457.1,45.9,2049.4,138.0,2756.8,79.8,456.1,2047.4,2752.6,235.8,75.7,32.6
0.096000,456.9,47.0,2048.5,141.6,2752.6,81.5,456.2,2045.9,2751.7,236,75.7,32.8
0.098000,456.6,48.2,2046.3,143.5,2748.8,84.1,456.3,2044.2,2750.6,236.2,75.6,33.1
0.100000,456.4,49.3,2043.4,143.1,2746.3,86.7,456.4,2042.4,2749.5,236.4,75.6,33.5
0.102000,456.2,50.3,2040.7,141.4,2744.7,89.3,456.4,2040.5,2748.3,236.5,75.6,33.9
0.104000,456.2,51.1,2039.0,140.5,2743.1,91.7,456.4,2038.4,2747.1,236.7,75.5,34.2
0.106000,456.2,51.9,2037.8,142.1,2740.1,94.0,456.4,2036.2,2745.8,236.9,75.5,34.4
0.108000,456.1,52.6,2037.5,147.0,2736.1,95.3,456.4,2033.8,2744.5,237,75.4,34.4
0.110000,455.9,53.5,2038.2,154.7,2732.9,94.9,456.4,2031.4,2743.3,237.2,75.4,34.5
0.112000,455.4,54.4,2039.2,163.0,2732.5,93.2,456.4,2028.8,2742.1,237.3,75.4,34.4
0.114000,454.5,55.4,2038.4,171.8,2734.2,91.6,456.3,2026,2741,237.5,75.3,34.3
0.116000,453.5,56.3,2034.4,179.8,2735.7,91.6,456.3,2023.2,2739.9,237.6,75.3,34.1
0.118000,452.5,57.1,2027.4,185.9,2735.1,93.7,456.2,2020.2,2739,237.8,75.2,33.7
0.120000,452.1,57.9,2019.5,187.2,2732.4,97.3,456.1,2017.1,2738.2,237.9,75.2,33.2
0.122000,452.2,58.7,2011.9,183.2,2728.3,102.2,456,2014,2737.5,238,75.1,32.8
0.124000,452.7,59.5,2005.6,176.8,2724.0,106.6,455.9,2010.7,2736.9,238.2,75.1,32.5
0.126000,453.2,60.2,2000.1,172.3,2720.4,108.2,455.8,2007.4,2736.6,238.3,75.1,32.6
0.128000,453.5,61.2,1994.2,170.1,2717.9,106.3,455.6,2004,2736.4,238.4,75,32.9
0.130000,453.7,62.1,1988.3,168.5,2718.0,102.5,455.5,2000.5,2736.4,238.6,75,33.4
0.132000,453.9,63.0,1982.5,165.2,2721.4,99.3,455.3,1997,2736.7,238.7,74.9,34
0.134000,454.1,63.7,1976.9,160.5,2727.2,98.4,455.2,1993.4,2737.1,238.8,74.9,34.5
0.136000,454.2,64.4,1970.6,154.3,2734.3,99.4,455,1989.9,2737.8,238.9,74.8,35
0.138000,454.2,64.9,1964.5,148.0,2739.8,101.4,454.9,1986.3,2738.7,239,74.8,35.6
0.140000,454.2,65.5,1959.2,142.3,2743.2,103.4,454.7,1982.7,2739.9,239.2,74.7,36.1
0.142000,454.4,66.1,1955.9,139.8,2744.9,104.4,454.5,1979.1,2741.2,239.3,74.7,36.6
0.144000,454.4,66.5,1954.0,141.0,2746.9,103.4,454.4,1975.6,2742.8,239.4,74.7,36.8
0.146000,454.1,66.8,1953.2,144.4,2749.4,100.9,454.2,1972.1,2744.7,239.5,74.6,36.7
0.148000,453.5,67.1,1953.5,145.6,2752.4,99.0,454.1,1968.6,2746.7,239.6,74.6,36.2
0.150000,453.0,67.2,1955.1,142.0,2755.8,99.3,454,1965.3,2748.9,239.7,74.6,35.4
0.152000,452.5,67.5,1956.8,136.3,2760.4,101.5,453.9,1961.9,2751.3,239.8,74.6,34.5
0.154000,452.4,67.9,1957.3,133.4,2765.5,103.3,453.7,1958.7,2753.9,239.8,74.6,33.8
0.156000,452.7,68.3,1956.9,135.0,2770.5,102.8,453.6,1955.6,2756.7,239.9,74.5,33.4
0.158000,453.2,68.4,1957.5,142.1,2773.7,100.8,453.6,1952.6,2759.6,240,74.5,33.1
0.160000,453.6,68.2,1959.8,152.3,2775.2,100.1,453.5,1949.7,2762.6,240.1,74.5,33
0.162000,454.0,67.6,1961.9,160.0,2776.3,101.9,453.5,1946.9,2765.7,240.2,74.5,32.9
0.164000,454.5,67.1,1960.1,155.6,2778.1,104.9,453.4,1944.3,2768.8,240.3,74.4,32.7
0.166000,455.3,66.8,1954.6,138.1,2781.0,107.8,453.4,1941.8,2772,240.3,74.4,32.6
0.168000,456.0,67.0,1949.3,119.9,2783.7,109.4,453.4,1939.5,2775.3,240.4,74.4,32.3
0.170000,456.6,67.5,1945.7,107.4,2785.4,108.4,453.5,1937.3,2778.5,240.5,74.3,31.9
0.172000,456.8,68.2,1943.5,101.6,2786.6,104.8,453.6,1935.3,2781.7,240.6,74.3,31.7
0.174000,457.0,68.8,1942.0,99.2,2788.0,100.5,453.6,1933.5,2784.9,240.6,74.3,31.7
0.176000,457.1,69.1,1940.8,98.0,2789.4,97.4,453.8,1931.8,2787.9,240.7,74.2,31.9
0.178000,457.3,69.3,1939.4,96.2,2791.1,96.2,453.9,1930.3,2790.9,240.7,74.2,32.5
0.180000,457.4,69.5,1938.0,93.1,2794.1,97.0,454.1,1928.9,2793.7,240.8,74.1,33.3
0.182000,457.4,69.7,1936.6,88.2,2799.1,99.2,454.3,1927.8,2796.3,240.8,74.1,34.1
0.184000,457.5,70.0,1935.6,82.8,2804.1,101.6,454.5,1926.8,2798.8,240.9,74.1,34.9
0.186000,457.7,70.3,1934.9,77.6,2807.6,103.8,454.7,1925.9,2801.1,240.9,74,35.6
0.188000,457.8,70.6,1934.8,73.7,2808.7,105.3,455,1925.2,2803.1,240.9,74,36.2
0.190000,457.9,70.7,1935.1,70.9,2808.1,106.5,455.3,1924.7,2804.9,241,74,36.8
0.192000,457.8,70.5,1935.6,69.1,2806.5,107.2,455.6,1924.3,2806.5,241,73.9,37.3
0.194000,457.5,70.1,1936.1,67.7,2804.0,107.1,455.9,1924,2807.8,241,73.9,37.7
0.196000,457.2,69.6,1936.4,66.2,2801.2,106.2,456.3,1923.8,2808.8,241,73.9,38
0.198000,457.0,69.3,1936.2,64.3,2799.2,105.0,456.6,1923.8,2809.5,241,73.9,38.1
0.200000,457.0,69.2,1935.3,61.9,2797.6,104.0,457,1923.8,2810,241,73.8,38.1
0.202000,457.1,69.4,1934.1,60.0,2796.1,103.5,457.4,1923.9,2810.1,241,73.8,38
0.204000,457.0,69.4,1932.8,58.8,2794.8,102.5,457.8,1924.1,2810,241,73.8,37.8
0.206000,456.8,69.4,1931.6,58.6,2794.0,100.8,458.2,1924.4,2809.6,240.9,73.8,37.5
0.208000,456.5,69.1,1930.3,58.9,2793.5,98.2,458.6,1924.6,2808.8,240.9,73.8,36.9
0.210000,456.4,68.6,1928.6,59.1,2792.7,95.9,459,1924.9,2807.9,240.9,73.8,36.1
0.212000,456.5,67.9,1926.3,59.0,2791.5,94.3,459.4,1925.2,2806.6,240.8,73.8,35.4
0.214000,456.8,67.1,1924.0,58.7,2790.4,93.8,459.9,1925.5,2805.1,240.8,73.8,34.9
0.216000,457.0,66.2,1922.1,58.8,2790.0,94.0,460.3,1925.7,2803.4,240.7,73.8,34.8
0.218000,457.2,65.4,1920.8,59.4,2790.8,93.9,460.7,1925.9,2801.4,240.6,73.8,35
0.220000,457.5,64.8,1919.5,60.1,2792.4,93.0,461.1,1926.1,2799.3,240.6,73.8,35.5
0.222000,458.0,64.4,1918.2,60.1,2793.8,91.2,461.4,1926.1,2797,240.5,73.8,36
0.224000,458.7,64.0,1917.0,58.9,2794.3,89.0,461.8,1926,2794.5,240.4,73.9,36.3
0.226000,459.5,63.6,1915.7,56.7,2794.1,87.1,462.1,1925.9,2791.9,240.3,73.9,36.2
0.228000,460.4,63.0,1913.7,54.2,2793.9,85.4,462.5,1925.6,2789.2,240.2,73.9,35.8
0.230000,461.3,62.2,1910.8,52.5,2794.3,83.8,462.7,1925.1,2786.5,240.1,74,35.3
0.232000,461.9,61.4,1907.4,52.1,2794.6,82.1,463,1924.5,2783.7,240,74,34.7
0.234000,462.3,60.7,1904.1,53.0,2794.0,80.2,463.2,1923.7,2780.9,239.9,74.1,34.3
0.236000,462.3,59.9,1901.3,54.5,2792.3,78.8,463.4,1922.7,2778.1,239.8,74.1,34.2
0.238000,462.1,59.1,1898.4,56.5,2790.1,77.8,463.6,1921.6,2775.4,239.7,74.1,34.4
0.240000,461.9,58.3,1895.9,58.3,2787.9,77.4,463.7,1920.2,2772.7,239.6,74.2,34.7
0.242000,461.9,57.5,1893.9,59.1,2785.7,77.5,463.8,1918.6,2770.1,239.5,74.2,35.1
0.244000,462.2,56.7,1893.0,58.7,2783.1,77.9,463.9,1916.8,2767.7,239.4,74.3,35.4
0.246000,462.8,55.9,1893.0,57.5,2779.5,78.2,463.9,1914.8,2765.4,239.3,74.3,35.7
0.248000,463.2,55.3,1893.5,56.6,2775.2,78.0,463.9,1912.5,2763.2,239.1,74.3,35.8
0.250000,463.5,54.6,1893.7,56.2,2770.5,77.4,463.8,1910.1,2761.3,239,74.4,36
0.252000,463.7,53.8,1893.0,56.2,2766.3,77.1,463.7,1907.4,2759.6,238.8,74.4,36.2
0.254000,464.1,52.7,1891.4,56.5,2762.1,77.5,463.6,1904.5,2758.1,238.7,74.4,36.3
0.256000,464.5,51.6,1889.8,57.0,2757.9,78.4,463.4,1901.3,2756.8,238.5,74.4,36.5
0.258000,465.0,50.5,1888.8,57.6,2753.9,79.3,463.2,1898,2755.8,238.4,74.4,36.9
0.260000,465.3,49.9,1889.1,57.8,2751.5,79.9,462.9,1894.4,2755.1,238.2,74.5,37.2
0.262000,465.3,49.7,1889.8,57.5,2751.1,80.8,462.6,1890.7,2754.6,238,74.5,37.5
0.264000,465.1,49.8,1890.0,56.9,2752.3,82.6,462.3,1886.8,2754.4,237.8,74.5,37.7
0.266000,464.9,50.0,1889.0,56.2,2753.7,85.8,461.9,1882.7,2754.4,237.6,74.5,37.5
0.268000,464.4,50.0,1887.2,55.6,2754.2,90.5,461.5,1878.5,2754.8,237.4,74.5,37.2
0.270000,463.9,50.0,1885.3,55.5,2753.1,96.3,461.1,1874.1,2755.4,237.2,74.5,36.6
0.272000,463.3,49.8,1883.3,55.7,2750.7,103.3,460.7,1869.6,2756.2,236.9,74.5,36
0.274000,462.5,49.6,1881.9,56.6,2748.0,110.7,460.2,1865,2757.3,236.7,74.5,35.4
0.276000,461.5,49.4,1881.0,58.5,2746.5,117.9,459.7,1860.4,2758.6,236.4,74.5,34.9
0.278000,460.5,49.0,1880.6,61.6,2747.4,123.4,459.2,1855.6,2760.2,236.1,74.5,34.4
0.280000,459.4,48.5,1879.8,65.6,2750.1,127.7,458.6,1850.9,2761.9,235.8,74.5,34
0.282000,458.7,47.8,1878.2,68.9,2753.4,131.3,458.1,1846.1,2763.9,235.4,74.5,33.5
0.284000,458.4,46.9,1875.8,69.3,2757.7,134.3,457.5,1841.4,2765.9,235.1,74.5,33.1
0.286000,458.6,45.8,1873.8,65.4,2763.1,134.0,457,1836.6,2768.1,234.7,74.4,32.8
0.288000,459.1,44.4,1872.1,58.3,2768.9,128.7,456.4,1832,2770.5,234.3,74.4,32.5
0.290000,459.5,42.9,1869.9,51.4,2771.9,120.5,455.9,1827.4,2772.8,233.9,74.4,32.3
0.292000,459.6,41.3,1866.4,45.7,2771.6,112.3,455.3,1822.9,2775.3,233.5,74.3,32.1
0.294000,459.4,39.8,1861.7,41.8,2770.2,107.9,454.8,1818.6,2777.8,233,74.3,31.6
0.296000,458.6,38.5,1855.6,39.3,2770.1,109.3,454.3,1814.4,2780.3,232.6,74.1,30.7
0.298000,457.3,38.0,1849.1,38.6,2772.5,117.3,453.8,1810.3,2782.7,232.1,74,29.5
0.300000,455.0,38.7,1841.8,40.3,2779.3,133.8,453.3,1806.5,2785.1,231.6,73.8,28.1
0.302000,451.7,40.5,1834.1,44.2,2791.9,156.8,452.9,1802.9,2787.4,231.1,73.5,26.6
0.304000,448.9,41.7,1825.1,47.0,2803.4,176.5,452.4,1799.6,2789.6,230.6,73.2,25.1
0.306000,447.3,42.1,1812.5,46.5,2806.4,191.0,452,1796.5,2791.7,230.1,72.7,23.8
0.308000,446.8,42.0,1797.6,43.5,2802.0,201.7,451.7,1793.7,2793.7,229.5,72.2,22.8
0.310000,446.6,42.4,1780.8,39.7,2797.1,213.3,451.4,1791.1,2795.4,229,71.5,21.7
0.312000,446.5,43.7,1765.3,36.2,2798.5,225.9,451.1,1788.9,2797,228.5,70.7,20.6
0.314000,446.8,46.7,1751.0,33.1,2808.6,237.9,450.8,1787,2798.3,228,69.8,19.4
0.316000,447.3,51.8,1739.3,31.3,2820.8,245.4,450.6,1785.4,2799.5,227.5,68.7,17.7
0.318000,448.2,60.5,1728.7,30.8,2825.6,249.5,450.5,1784.2,2800.3,227,67.5,15.5
0.320000,449.3,73.7,1719.0,32.0,2815.6,252.3,450.4,1783.3,2801,226.5,66.1,13.1
0.322000,450.9,95.8,1708.5,35.3,2790.1,257.4,450.3,1782.8,2801.4,226,64.6,10.9
0.324000,450.4,130.8,1698.6,42.2,2761.5,270.4,450.3,1782.6,2801.5,225.5,63.4,9.2
