time,f1,b1,f2,b2,f3,b3,f1p,f2p,f3p,f0,intensity,harmonicity
0.026000,578.7,345.5,993.3,352.6,3074.6,379.2,586.9,1019.9,3111.9,239,71.6,7.8
0.028000,603.1,285.9,999.3,373.1,3098.5,345.6,586.6,1019.6,3111.8,238.7,72.4,8.2
0.030000,614.2,231.1,1025.2,383.7,3130.1,333.2,586.2,1019.1,3111.7,238.5,73,8.7
0.032000,613.0,191.6,1049.3,372.1,3160.8,336.1,585.6,1018.4,3111.5,238.3,73.5,9.4
0.034000,603.7,163.8,1056.9,341.7,3170.6,334.7,584.8,1017.5,3111.3,238,73.9,10.4
0.036000,592.5,141.5,1054.2,303.1,3151.8,321.6,583.8,1016.4,3111,237.8,74.2,11.8
0.038000,584.2,126.9,1050.2,275.2,3122.7,296.9,582.7,1015.1,3110.7,237.6,74.5,13.8
0.040000,578.5,120.0,1045.1,263.6,3100.3,265.6,581.4,1013.6,3110.3,237.4,74.7,16.2
0.042000,574.5,119.4,1038.1,265.3,3088.4,239.5,580,1011.9,3109.9,237.2,74.8,18.7
0.044000,571.3,122.2,1029.7,273.4,3083.7,224.6,578.5,1010,3109.5,237,75,21
0.046000,568.1,126.2,1021.0,281.9,3082.6,221.0,576.8,1008,3109,236.9,75.2,22.8
0.048000,564.4,129.5,1013.7,285.6,3082.0,228.1,575,1005.8,3108.5,236.7,75.3,24.5
0.050000,559.8,131.0,1007.4,283.2,3079.1,242.6,573.1,1003.4,3108,236.6,75.5,26
0.052000,554.9,131.2,1001.9,277.8,3074.3,255.6,571.1,1000.8,3107.6,236.5,75.6,27.5
0.054000,550.6,130.9,996.6,272.8,3071.0,258.0,569,998.1,3107.1,236.4,75.7,28.8
0.056000,547.8,131.1,991.4,270.9,3071.8,250.3,566.9,995.3,3106.6,236.4,75.7,30.1
0.058000,546.6,133.5,986.4,275.6,3077.8,237.0,564.7,992.3,3106.1,236.3,75.8,31.6
0.060000,547.7,140.0,982.2,290.6,3088.9,220.8,562.4,989.2,3105.7,236.3,75.9,33.1
0.062000,550.4,148.4,977.9,309.7,3100.9,206.2,560.1,986,3105.3,236.3,76,34.3
0.064000,552.8,155.2,971.6,320.8,3109.2,194.7,557.8,982.6,3104.9,236.4,76,34.9
0.066000,553.7,158.2,963.6,317.9,3112.7,185.3,555.5,979.1,3104.6,236.4,76.1,34.7
0.068000,552.8,157.6,955.4,302.9,3114.1,180.0,553.2,975.6,3104.3,236.5,76.2,33.5
0.070000,550.7,154.7,948.9,282.8,3116.1,183.7,550.9,971.9,3104.2,236.5,76.3,31.7
0.072000,548.3,151.7,944.0,265.7,3119.8,197.1,548.6,968.2,3104,236.6,76.3,29.8
0.074000,546.2,150.3,938.9,253.1,3125.0,214.6,546.4,964.3,3104,236.8,76.4,28.5
0.076000,544.4,149.8,933.3,241.8,3129.2,228.0,544.2,960.5,3104,236.9,76.4,28.1
0.078000,542.5,148.4,928.1,229.2,3130.4,233.6,542.1,956.5,3104.2,237,76.4,28.5
0.080000,540.9,146.6,924.8,218.2,3128.2,228.7,540.1,952.5,3104.4,237.2,76.4,29.4
0.082000,540.0,145.8,922.7,210.9,3124.2,214.8,538.1,948.5,3104.8,237.3,76.4,30.4
0.084000,539.2,145.4,920.7,204.4,3119.5,198.4,536.2,944.4,3105.2,237.5,76.5,31.2
0.086000,537.8,143.8,918.3,195.3,3114.4,185.7,534.5,940.3,3105.8,237.7,76.5,31.5
0.088000,535.7,140.2,915.7,183.2,3108.9,176.2,532.8,936.1,3106.5,237.8,76.5,31.5
0.090000,533.0,135.2,913.2,169.7,3104.4,168.4,531.3,932,3107.4,238,76.5,31.3
0.092000,530.6,130.6,910.8,157.5,3102.4,159.6,529.9,927.8,3108.3,238.2,76.5,31.1
0.094000,529.1,129.1,908.9,150.5,3104.2,147.9,528.6,923.7,3109.4,238.4,76.5,31
0.096000,528.8,131.2,907.4,149.2,3109.2,131.4,527.5,919.6,3110.6,238.6,76.5,31.2
0.098000,529.5,136.4,906.6,152.5,3114.4,111.1,526.5,915.4,3112,238.8,76.5,31.6
0.100000,531.0,142.8,906.1,157.8,3117.9,91.4,525.6,911.3,3113.5,239,76.5,32.2
0.102000,532.9,149.0,905.5,163.2,3120.0,76.4,524.8,907.2,3115.2,239.2,76.5,32.7
0.104000,534.8,154.9,904.5,168.7,3121.4,67.2,524.2,903.2,3117,239.4,76.5,33.2
0.106000,537.2,161.4,903.6,176.1,3122.8,61.1,523.7,899.2,3118.9,239.6,76.5,33.5
0.108000,540.4,168.4,903.3,185.3,3124.1,56.7,523.4,895.2,3121,239.7,76.5,33.6
0.110000,543.2,173.5,903.1,192.7,3126.1,55.3,523.2,891.3,3123.2,239.9,76.5,33.7
0.112000,543.3,174.2,901.4,194.0,3130.0,59.5,523.1,887.4,3125.5,240.1,76.5,33.6
0.114000,540.3,170.1,897.8,188.1,3135.6,69.7,523.2,883.6,3128,240.3,76.4,33.6
0.116000,535.8,162.5,893.5,177.9,3141.4,82.8,523.3,879.8,3130.6,240.4,76.4,33.5
0.118000,531.5,154.0,889.8,167.5,3146.2,92.4,523.6,876.1,3133.4,240.6,76.4,33.2
0.120000,528.3,146.7,886.4,159.2,3150.4,93.9,523.9,872.4,3136.2,240.7,76.4,32.8
0.122000,526.2,141.9,883.3,154.5,3153.9,88.0,524.4,868.9,3139.1,240.9,76.4,32.5
0.124000,524.7,138.5,880.2,151.8,3155.7,79.2,525,865.3,3142.2,241,76.4,32.5
0.126000,523.2,135.6,877.1,150.1,3155.4,71.1,525.6,861.9,3145.4,241.1,76.4,32.8
0.128000,522.1,133.5,874.1,149.4,3153.8,64.7,526.3,858.5,3148.6,241.3,76.4,33.7
0.130000,521.5,133.1,871.4,151.0,3152.6,59.6,527.1,855.2,3152,241.4,76.4,34.8
0.132000,521.7,134.8,869.0,155.6,3152.4,56.3,527.9,852,3155.4,241.5,76.4,35.9
0.134000,522.4,137.9,866.5,162.9,3153.3,54.6,528.8,848.8,3158.8,241.6,76.3,36.7
0.136000,523.3,141.9,863.9,172.5,3155.2,54.3,529.7,845.8,3162.4,241.7,76.3,37.1
0.138000,524.5,146.6,860.9,184.0,3157.4,54.2,530.6,842.8,3166,241.8,76.3,37
0.140000,525.9,151.5,857.3,196.5,3160.0,54.3,531.5,839.8,3169.6,241.9,76.3,36.6
0.142000,526.8,155.4,852.8,206.8,3162.5,55.8,532.5,837,3173.3,242,76.3,36.2
0.144000,526.5,157.6,847.1,212.6,3165.0,60.3,533.4,834.2,3177,242.1,76.3,36
0.146000,525.2,158.4,841.1,214.5,3167.3,68.9,534.3,831.5,3180.7,242.1,76.3,36
0.148000,524.2,159.6,835.7,217.1,3169.8,80.9,535.2,828.9,3184.4,242.2,76.3,36.4
0.150000,524.5,162.9,831.0,224.1,3173.7,95.6,536,826.4,3188.1,242.3,76.2,36.9
0.152000,525.8,167.7,827.1,234.5,3179.0,111.4,536.9,824,3191.8,242.4,76.2,37.4
0.154000,527.3,172.3,823.7,245.8,3184.8,128.5,537.6,821.6,3195.5,242.4,76.2,37.7
0.156000,528.3,175.2,820.9,255.3,3189.3,147.1,538.3,819.4,3199.1,242.5,76.2,37.8
0.158000,528.6,176.4,818.2,263.3,3191.6,166.7,539,817.2,3202.7,242.5,76.2,37.6
0.160000,528.6,176.9,815.5,270.8,3191.6,183.1,539.5,815.1,3206.2,242.6,76.1,37.3
0.162000,528.4,177.0,812.5,278.4,3189.4,194.6,540,813.1,3209.7,242.7,76.1,36.9
0.164000,528.0,176.4,809.8,285.3,3186.2,202.0,540.5,811.2,3213.1,242.7,76.1,36.6
0.166000,527.9,176.2,807.4,293.2,3184.7,209.7,540.8,809.4,3216.5,242.8,76,36.4
0.168000,529.0,177.9,805.2,306.8,3187.7,222.3,541,807.7,3219.7,242.8,76,36.4
0.170000,532.1,182.1,802.6,328.6,3195.1,239.0,541.2,806,3222.9,242.9,76,36.4
0.172000,536.9,187.3,799.5,358.4,3205.0,255.5,541.3,804.5,3225.9,243,75.9,36.4
0.174000,542.1,191.4,795.8,390.7,3215.5,267.9,541.2,803.1,3228.9,243,75.9,36.3
0.176000,546.1,193.6,791.9,418.3,3226.7,278.0,541.1,801.8,3231.7,243.1,75.8,36.1
0.178000,548.3,194.1,788.0,438.2,3240.2,289.4,540.9,800.6,3234.5,243.1,75.8,35.7
0.180000,549.0,193.3,785.1,451.4,3254.9,299.5,540.6,799.5,3237.1,243.2,75.7,35.2
0.182000,548.8,191.2,783.7,462.6,3267.1,301.7,540.2,798.6,3239.5,243.3,75.7,34.8
0.184000,547.9,188.3,783.8,472.3,3271.6,290.4,539.8,797.7,3241.9,243.4,75.6,34.5
0.186000,545.9,184.9,784.9,477.1,3267.4,269.0,539.2,797,3244,243.4,75.6,34.5
0.188000,543.1,182.0,785.4,475.9,3261.5,250.7,538.6,796.5,3246.1,243.5,75.5,34.8
0.190000,540.8,179.7,784.4,476.7,3260.0,241.3,537.9,796.1,3248,243.6,75.5,35.2
0.192000,540.2,177.9,782.1,489.9,3264.1,237.8,537.1,795.8,3249.7,243.6,75.4,35.6
0.194000,541.4,175.6,779.9,518.6,3271.3,234.4,536.3,795.7,3251.2,243.7,75.4,35.9
0.196000,542.9,171.7,779.6,556.0,3276.3,226.7,535.4,795.7,3252.6,243.8,75.3,35.9
0.198000,543.4,167.0,782.4,589.9,3274.2,213.5,534.5,795.9,3253.9,243.9,75.3,35.6
0.200000,543.4,162.3,787.4,619.7,3265.9,196.1,533.5,796.3,3255,244,75.2,35.2
0.202000,543.0,158.2,793.2,643.3,3254.5,179.4,532.5,796.9,3255.8,244.1,75.2,34.8
0.204000,541.5,155.0,798.6,652.9,3242.6,167.5,531.4,797.7,3256.6,244.2,75.2,34.5
0.206000,538.8,152.7,802.5,645.4,3232.3,161.8,530.4,798.6,3257.1,244.3,75.1,34.4
0.208000,536.0,151.2,804.4,630.4,3227.8,163.8,529.3,799.8,3257.5,244.4,75.1,34.3
0.210000,533.8,149.7,805.1,620.2,3230.0,173.0,528.2,801.2,3257.7,244.5,75,34.4
0.212000,532.3,147.8,805.8,618.7,3237.0,187.1,527,802.8,3257.7,244.5,75,34.5
0.214000,531.1,145.5,806.7,622.1,3245.5,204.2,525.9,804.6,3257.5,244.6,74.9,34.6
0.216000,529.8,143.4,807.5,626.1,3254.2,224.8,524.8,806.7,3257.1,244.8,74.8,34.8
0.218000,528.7,141.7,808.7,629.6,3262.8,245.9,523.7,809,3256.6,244.9,74.8,35.1
0.220000,527.7,140.5,810.7,632.8,3271.8,264.6,522.7,811.5,3255.9,245,74.7,35.5
0.222000,526.4,139.3,813.7,630.8,3279.4,279.4,521.6,814.3,3255,245.1,74.6,35.8
0.224000,524.3,138.0,816.7,616.8,3282.7,293.6,520.6,817.4,3253.9,245.2,74.5,36.1
0.226000,521.6,136.6,818.5,593.8,3280.1,310.9,519.6,820.8,3252.6,245.3,74.5,36.2
0.228000,519.1,134.9,819.6,573.3,3274.6,334.8,518.6,824.4,3251.1,245.4,74.4,36
0.230000,517.7,133.1,821.2,567.0,3271.1,364.8,517.7,828.3,3249.5,245.5,74.3,35.7
0.232000,517.2,131.0,824.6,575.0,3272.1,400.0,516.8,832.5,3247.6,245.6,74.2,35.4
0.234000,517.1,128.6,830.6,590.8,3277.3,439.4,516,837,3245.6,245.7,74.1,35.3
0.236000,517.4,126.3,837.5,613.1,3288.2,475.4,515.2,841.8,3243.4,245.8,74.1,35.7
0.238000,518.1,124.2,844.6,641.6,3305.7,510.4,514.4,847,3241,245.9,74,36.4
0.240000,518.0,121.9,851.5,663.3,3323.0,556.8,513.7,852.4,3238.4,246,74,37.4
0.242000,516.8,119.4,858.3,667.2,3331.4,628.0,513,858.1,3235.6,246.1,73.9,38.4
0.244000,514.6,116.5,866.0,657.0,3324.8,721.7,512.3,864.2,3232.7,246.2,73.9,39.1
0.246000,512.5,113.7,875.2,644.3,3307.7,794.6,511.7,870.5,3229.5,246.3,73.8,39.3
0.248000,510.3,110.7,885.7,628.6,3286.6,830.3,511.2,877.2,3226.2,246.4,73.8,39.1
0.250000,507.1,106.9,895.2,598.0,3247.5,848.9,510.6,884.2,3222.7,246.5,73.7,38.7
0.252000,502.7,101.8,902.2,547.6,3177.2,845.9,510.1,891.5,3219.1,246.6,73.7,38.2
0.254000,498.6,96.3,907.1,497.5,3105.9,811.5,509.6,899.1,3215.2,246.7,73.6,37.6
0.256000,496.1,92.5,912.9,469.3,3064.3,787.5,509.1,907.1,3211.2,246.8,73.5,37.2
0.258000,495.7,91.8,921.2,468.8,3058.2,807.5,508.6,915.4,3207,246.9,73.5,36.7
0.260000,496.2,92.6,932.3,480.7,3073.4,864.0,508.2,923.9,3202.6,247,73.4,36.1
0.262000,496.8,93.6,945.1,488.9,3095.1,937.7,507.7,932.8,3198.1,247.2,73.3,35.6
0.264000,496.8,94.3,957.0,487.3,3111.7,1001.3,507.2,942,3193.3,247.3,73.2,35.2
0.266000,496.5,94.6,967.3,478.4,3119.9,1037.0,506.7,951.4,3188.5,247.4,73.2,34.9
0.268000,496.0,94.8,976.8,468.3,3125.0,1043.7,506.2,961.2,3183.4,247.5,73.1,34.7
0.270000,495.9,95.6,986.7,465.2,3137.8,1041.2,505.7,971.2,3178.2,247.7,73,34.6
0.272000,496.3,97.0,997.7,471.6,3160.8,1033.9,505.1,981.5,3172.9,247.8,72.9,34.5
0.274000,496.7,98.5,1008.0,481.0,3180.2,1004.5,504.5,992,3167.4,247.9,72.9,34.3
0.276000,496.8,99.6,1017.2,485.9,3187.0,945.7,503.9,1002.8,3161.7,248.1,72.8,34
0.278000,496.6,100.3,1025.3,482.5,3183.8,867.3,503.2,1013.8,3156,248.2,72.7,33.5
0.280000,496.1,100.7,1032.4,472.5,3175.6,780.8,502.5,1025.1,3150.1,248.3,72.7,32.9
0.282000,495.8,101.0,1038.7,460.1,3162.4,692.2,501.7,1036.5,3144,248.5,72.6,32.3
0.284000,495.5,101.0,1044.0,451.4,3145.5,615.9,500.8,1048.2,3137.9,248.6,72.5,31.8
0.286000,495.4,100.7,1049.7,449.9,3127.1,554.0,499.8,1060,3131.6,248.7,72.4,31.5
0.288000,495.5,100.0,1057.2,459.5,3110.5,507.1,498.8,1072,3125.2,248.9,72.3,31.3
0.290000,495.9,99.0,1067.7,484.2,3097.6,471.3,497.7,1084.1,3118.7,249,72.3,31.1
0.292000,496.5,97.5,1080.7,521.9,3090.5,444.4,496.6,1096.4,3112.2,249.1,72.2,31
0.294000,497.0,95.5,1097.0,566.4,3088.2,421.5,495.3,1108.8,3105.5,249.2,72.1,31.1
0.296000,496.9,92.7,1116.1,602.7,3088.1,401.9,494,1121.2,3098.8,249.3,72,31.3
0.298000,496.2,89.7,1136.9,619.1,3088.7,384.9,492.6,1133.7,3092,249.4,71.9,31.7
0.300000,495.2,87.3,1158.2,613.4,3089.3,367.4,491,1146.3,3085.2,249.5,71.9,32.3
0.302000,494.3,85.9,1176.2,590.1,3088.3,349.8,489.5,1158.9,3078.3,249.6,71.8,32.9
0.304000,493.2,84.9,1191.1,557.0,3085.2,334.1,487.8,1171.5,3071.4,249.7,71.7,33.3
0.306000,492.0,83.7,1203.9,522.9,3081.3,323.2,486,1184.1,3064.5,249.8,71.6,33.6
0.308000,490.6,82.1,1215.7,491.1,3078.2,318.5,484.2,1196.7,3057.6,249.8,71.5,33.7
0.310000,489.0,80.3,1226.8,457.8,3076.3,319.3,482.3,1209.2,3050.6,249.9,71.4,33.7
0.312000,487.3,78.9,1235.7,421.1,3074.8,322.9,480.3,1221.6,3043.7,249.9,71.3,33.6
0.314000,485.5,77.7,1242.7,378.2,3071.9,326.0,478.3,1234,3036.9,249.9,71.2,33.5
0.316000,483.5,76.3,1248.2,330.6,3067.7,326.6,476.2,1246.2,3030.1,249.9,71.2,33.2
0.318000,481.2,74.8,1253.4,281.3,3063.6,325.1,474,1258.2,3023.3,249.9,71.1,32.9
0.320000,479.1,73.8,1258.6,238.9,3061.5,323.5,471.8,1270.1,3016.6,249.8,71,32.5
0.322000,477.2,73.9,1264.0,204.1,3060.5,321.1,469.6,1281.8,3010,249.7,70.9,32
0.324000,475.5,75.1,1269.2,175.9,3057.4,315.5,467.3,1293.3,3003.5,249.7,70.8,31.4
0.326000,473.7,76.8,1274.0,152.4,3049.1,305.9,465,1304.5,2997.1,249.6,70.7,30.6
0.328000,471.7,78.4,1278.9,132.2,3035.2,295.2,462.7,1315.5,2990.9,249.4,70.6,29.4
0.330000,469.7,80.0,1284.2,117.5,3019.8,287.7,460.4,1326.1,2984.7,249.3,70.5,28.1
0.332000,467.8,82.7,1289.9,108.6,3005.6,284.9,458.1,1336.5,2978.8,249.1,70.4,26.8
0.334000,466.1,86.9,1295.5,105.7,2994.6,289.3,455.9,1346.6,2973,248.9,70.4,25.8
0.336000,464.4,91.6,1301.0,108.5,2986.5,304.3,453.6,1356.3,2967.4,248.7,70.3,25.1
0.338000,462.7,96.1,1307.6,117.6,2978.6,331.2,451.4,1365.6,2962,248.5,70.3,24.8
0.340000,460.9,99.3,1317.2,133.0,2969.8,362.2,449.2,1374.6,2956.8,248.2,70.2,24.6
0.342000,459.2,101.1,1332.2,155.2,2960.5,388.9,447.1,1383.1,2951.8,248,70.2,24.6
0.344000,457.1,101.1,1353.4,182.1,2951.6,402.1,445.1,1391.3,2947,247.7,70.2,24.8
0.346000,454.4,98.4,1379.1,207.2,2941.1,400.6,443.1,1399,2942.5,247.4,70.2,25.1
0.348000,450.8,93.5,1406.3,221.6,2927.0,386.9,441.2,1406.2,2938.3,247.1,70.2,25.7
0.350000,446.9,88.8,1429.7,217.8,2913.0,368.2,439.5,1413,2934.3,246.8,70.2,26.5
0.352000,442.9,85.7,1448.3,199.7,2901.7,355.6,437.8,1419.2,2930.6,246.4,70.2,27.3
0.354000,438.9,84.4,1461.6,175.7,2893.3,359.4,436.2,1425,2927.2,246.1,70.2,27.8
0.356000,434.7,84.1,1470.5,151.3,2886.9,381.0,434.8,1430.3,2924.1,245.7,70.3,28
0.358000,430.7,84.4,1475.5,131.0,2884.2,404.8,433.5,1435,2921.3,245.4,70.3,27.7
0.360000,426.7,84.8,1478.4,114.2,2885.0,413.7,432.3,1439.2,2918.8,245,70.3,27.2
0.362000,422.9,85.4,1480.0,101.3,2886.7,403.2,431.3,1442.9,2916.6,244.7,70.3,26.6
0.364000,419.0,86.1,1480.5,92.7,2887.6,381.4,430.4,1446,2914.8,244.3,70.3,26.1
0.366000,414.8,86.2,1478.9,88.3,2888.1,362.2,429.7,1448.6,2913.3,243.9,70.3,25.7
0.368000,410.3,85.6,1475.0,87.8,2890.9,352.9,429.1,1450.6,2912.1,243.6,70.3,25.4
0.370000,405.7,85.7,1469.9,90.4,2896.3,348.4,428.7,1452,2911.2,243.3,70.3,25.2
0.372000,401.3,87.5,1466.0,96.7,2900.8,348.8,428.5,1452.9,2910.7,242.9,70.3,24.9
0.374000,397.0,91.1,1465.8,109.0,2900.5,359.6,428.4,1453.1,2910.5,242.6,70.2,24.7
