time,f1,b1,f2,b2,f3,b3,f1p,f2p,f3p,f0,intensity,harmonicity
0.026000,405.2,47.5,1826.0,206.8,2042.1,160.2,412.9,1872.5,2086.2,223.5,74.3,26.9
0.028000,407.7,51.1,1846.9,190.7,2056.3,202.7,412.9,1873.6,2086.7,223.6,74.2,27.4
0.030000,409.9,53.2,1858.9,171.0,2074.7,233.8,413,1875.5,2087.4,223.7,74.2,27.7
0.032000,411.6,52.1,1863.3,164.2,2084.6,238.0,413.1,1878.1,2088.5,223.8,74.1,27.9
0.034000,412.6,49.0,1867.0,168.8,2085.2,227.6,413.3,1881.4,2089.9,223.9,74.1,28
0.036000,413.4,45.5,1872.0,180.9,2081.3,211.7,413.5,1885.3,2091.5,224,74.1,28.1
0.038000,414.1,42.4,1878.2,196.1,2077.1,194.1,413.7,1889.7,2093.6,224.2,74.2,28
0.040000,414.7,40.2,1885.3,207.6,2076.0,182.2,413.9,1894.7,2095.9,224.3,74.2,27.8
0.042000,415.3,39.2,1895.1,211.8,2079.3,181.5,414.2,1900.2,2098.6,224.5,74.3,27.6
0.044000,415.9,38.8,1907.2,208.2,2088.0,191.3,414.5,1906,2101.6,224.7,74.4,27.3
0.046000,416.6,38.7,1919.0,202.3,2099.5,206.3,414.8,1912.1,2105,224.8,74.5,26.9
0.048000,417.2,38.8,1933.4,198.2,2110.5,229.5,415.2,1918.4,2108.8,225,74.6,26.4
0.050000,417.9,39.4,1951.8,191.0,2122.5,267.7,415.6,1924.9,2112.9,225.2,74.7,25.8
0.052000,418.5,40.5,1965.2,180.3,2139.8,303.1,416,1931.4,2117.5,225.4,74.7,25.3
0.054000,419.1,41.7,1970.4,176.5,2158.5,311.3,416.4,1937.8,2122.4,225.6,74.8,24.8
0.056000,419.9,43.0,1972.0,178.4,2171.6,301.7,416.9,1944.2,2127.7,225.8,74.9,24.6
0.058000,420.5,44.0,1975.5,177.3,2179.1,298.7,417.4,1950.2,2133.4,226,75,24.5
0.060000,420.8,44.2,1980.2,173.0,2183.7,301.4,417.9,1956,2139.6,226.2,75.1,24.5
0.062000,420.8,43.5,1981.0,174.6,2185.0,291.3,418.4,1961.4,2146.1,226.5,75.2,24.6
0.064000,420.7,42.7,1976.5,184.8,2184.9,267.0,418.9,1966.3,2153.1,226.7,75.3,24.7
0.066000,420.8,42.6,1972.4,195.1,2186.9,249.3,419.5,1970.7,2160.4,226.9,75.3,25
0.068000,421.0,43.0,1974.5,199.1,2190.8,251.1,420.1,1974.4,2168.2,227.2,75.4,25.5
0.070000,421.3,43.1,1980.0,198.1,2194.2,263.4,420.6,1977.6,2176.4,227.4,75.5,26.2
0.072000,421.5,42.8,1983.5,199.8,2194.8,270.9,421.2,1980,2185,227.6,75.5,26.8
0.074000,421.8,42.6,1985.3,207.4,2192.8,272.8,421.8,1981.7,2193.9,227.9,75.6,27.2
0.076000,422.2,42.7,1990.0,214.3,2192.2,283.0,422.4,1982.5,2203.2,228.1,75.6,27.2
0.078000,422.5,43.0,1997.2,214.7,2195.9,303.6,423.1,1982.7,2212.9,228.4,75.6,26.9
0.080000,422.7,42.9,2000.5,216.9,2203.0,316.5,423.7,1981.9,2222.9,228.6,75.7,26.4
0.082000,422.8,42.2,1996.9,231.2,2211.0,308.6,424.3,1980.4,2233.2,228.9,75.7,25.9
0.084000,423.1,41.7,1989.5,250.3,2221.1,293.1,424.9,1978.1,2243.8,229.1,75.7,25.6
0.086000,423.6,41.8,1981.6,261.6,2235.5,283.4,425.6,1975,2254.7,229.4,75.8,25.8
0.088000,424.2,42.2,1971.0,261.4,2252.4,274.6,426.2,1971.1,2265.8,229.7,75.8,26.4
0.090000,424.9,42.5,1956.6,255.9,2265.9,262.1,426.8,1966.5,2277.1,229.9,75.8,27.2
0.092000,425.6,42.7,1942.0,250.3,2275.7,252.3,427.4,1961.2,2288.6,230.2,75.9,28.1
0.094000,426.3,42.8,1930.3,243.2,2285.0,251.6,428,1955.2,2300.2,230.4,75.9,28.7
0.096000,427.0,42.7,1920.6,230.9,2296.3,255.9,428.6,1948.6,2312,230.7,75.9,28.9
0.098000,427.6,42.1,1908.2,212.9,2309.9,255.0,429.2,1941.5,2323.8,231,75.9,28.8
0.100000,428.3,41.2,1893.4,193.5,2324.3,248.5,429.8,1933.9,2335.7,231.2,76,28.5
0.102000,429.0,40.6,1882.0,178.5,2338.1,245.0,430.3,1925.8,2347.6,231.5,76,28.1
0.104000,429.8,40.3,1874.8,166.0,2351.6,246.5,430.9,1917.4,2359.5,231.7,76.1,27.7
0.106000,430.6,40.4,1869.8,151.3,2364.3,247.9,431.4,1908.7,2371.3,232,76.1,27.6
0.108000,431.4,40.8,1866.4,134.3,2375.5,245.5,431.9,1899.7,2383.1,232.3,76.1,27.6
0.110000,432.3,41.5,1864.7,118.3,2387.4,243.4,432.4,1890.6,2394.7,232.5,76.2,27.6
0.112000,433.1,42.2,1864.2,106.6,2401.7,245.9,432.8,1881.4,2406.2,232.8,76.2,27.7
0.114000,433.9,42.8,1863.7,98.9,2417.5,253.5,433.3,1872.1,2417.6,233,76.3,27.8
0.116000,434.6,43.0,1862.4,94.5,2431.6,263.1,433.7,1862.9,2428.8,233.3,76.3,28
0.118000,435.2,43.2,1860.7,91.7,2444.4,273.1,434,1853.7,2439.7,233.5,76.4,28.3
0.120000,435.8,43.5,1859.4,89.8,2457.8,282.5,434.4,1844.6,2450.5,233.8,76.4,28.6
0.122000,436.3,43.8,1858.5,89.1,2470.2,289.8,434.7,1835.7,2461,234,76.4,29
0.124000,436.7,43.7,1857.3,89.9,2480.0,296.2,434.9,1827,2471.2,234.2,76.5,29.3
0.126000,436.9,43.0,1855.1,92.9,2488.0,302.7,435.2,1818.4,2481.2,234.5,76.5,29.5
0.128000,437.0,42.0,1851.7,98.4,2496.2,306.7,435.4,1810.2,2490.9,234.7,76.5,29.5
0.130000,436.9,40.7,1846.2,106.4,2505.1,303.7,435.6,1802.2,2500.3,234.9,76.5,29.4
0.132000,436.8,39.6,1837.6,117.0,2513.7,289.6,435.7,1794.5,2509.4,235.1,76.5,29.4
0.134000,436.5,38.7,1826.3,128.5,2521.3,268.4,435.8,1787.1,2518.2,235.3,76.5,29.6
0.136000,436.3,38.4,1813.4,140.3,2530.0,246.0,435.8,1780,2526.8,235.5,76.5,30.1
0.138000,436.1,38.6,1799.6,152.3,2540.6,226.5,435.9,1773.1,2535,235.7,76.5,30.9
0.140000,435.9,39.1,1786.0,162.9,2551.0,211.8,435.8,1766.5,2543,235.9,76.4,31.9
0.142000,435.7,39.7,1772.3,171.3,2560.3,199.3,435.8,1760.2,2550.7,236.1,76.4,32.9
0.144000,435.5,40.4,1759.3,176.8,2568.8,186.8,435.7,1754.2,2558.1,236.2,76.4,33.8
0.146000,435.3,41.2,1749.5,179.5,2576.3,175.1,435.5,1748.3,2565.3,236.4,76.4,34.5
0.148000,435.1,42.1,1742.1,180.4,2582.9,164.7,435.4,1742.6,2572.2,236.6,76.4,35.1
0.150000,434.9,42.8,1735.5,180.5,2588.4,157.1,435.1,1737.2,2579,236.7,76.4,35.6
0.152000,434.6,43.3,1728.5,180.5,2592.8,153.1,434.9,1731.8,2585.5,236.8,76.4,35.9
0.154000,434.2,43.5,1720.4,180.7,2597.1,151.9,434.6,1726.6,2591.8,237,76.4,36.2
0.156000,433.8,43.4,1710.9,180.0,2601.7,151.2,434.3,1721.4,2597.9,237.1,76.4,36.3
0.158000,433.4,42.8,1699.4,176.3,2606.0,148.1,434,1716.4,2603.9,237.2,76.4,36.3
0.160000,432.9,41.8,1686.9,168.5,2609.5,142.0,433.6,1711.3,2609.6,237.3,76.3,36.1
0.162000,432.5,40.8,1675.4,157.0,2613.3,134.7,433.2,1706.3,2615.3,237.4,76.3,35.9
0.164000,432.1,40.1,1666.6,143.7,2618.1,129.4,432.8,1701.3,2620.8,237.5,76.3,35.7
0.166000,431.7,40.0,1661.6,132.4,2622.9,129.3,432.3,1696.2,2626.2,237.6,76.3,35.5
0.168000,431.4,40.2,1659.0,123.7,2627.2,135.0,431.9,1691.2,2631.5,237.7,76.2,35.3
0.170000,431.0,40.5,1657.9,117.0,2631.5,145.9,431.4,1686.1,2636.6,237.8,76.2,35
0.172000,430.6,41.0,1658.1,111.7,2635.7,158.5,430.9,1681,2641.7,237.9,76.2,34.8
0.174000,430.1,41.6,1658.7,106.8,2640.2,170.0,430.4,1675.9,2646.7,237.9,76.2,34.7
0.176000,429.6,42.2,1658.7,102.6,2644.8,180.2,429.9,1670.9,2651.6,238,76.1,34.7
0.178000,429.1,42.6,1657.5,99.7,2649.2,189.9,429.4,1665.8,2656.4,238.1,76.1,34.9
0.180000,428.6,42.9,1655.4,98.3,2654.1,201.4,428.9,1660.7,2661.1,238.1,76.1,35.1
0.182000,428.2,43.3,1653.2,98.1,2659.8,214.2,428.4,1655.8,2665.7,238.2,76,35.4
0.184000,427.9,43.6,1651.5,98.2,2665.4,225.3,427.9,1650.9,2670.2,238.2,76,35.6
0.186000,427.6,43.9,1650.1,98.4,2670.5,234.5,427.4,1646.2,2674.5,238.3,76,35.8
0.188000,427.2,43.8,1648.5,99.7,2674.7,244.2,426.9,1641.7,2678.8,238.3,75.9,35.9
0.190000,426.7,43.6,1646.3,103.7,2677.4,255.2,426.5,1637.4,2683,238.4,75.9,36
0.192000,426.3,43.5,1643.7,111.4,2678.9,266.7,426,1633.4,2687,238.4,75.8,36
0.194000,425.9,43.8,1641.3,122.5,2680.1,277.6,425.6,1629.8,2690.9,238.4,75.8,36.1
0.196000,425.6,44.3,1639.1,135.6,2681.4,289.3,425.2,1626.5,2694.6,238.5,75.7,36.2
0.198000,425.3,45.0,1637.1,146.9,2683.3,302.0,424.8,1623.6,2698.2,238.5,75.7,36.4
0.200000,425.1,45.9,1635.0,154.9,2686.9,314.9,424.5,1621.2,2701.6,238.5,75.6,36.6
0.202000,424.8,46.8,1633.0,160.3,2692.9,325.7,424.2,1619.3,2704.7,238.5,75.6,36.7
0.204000,424.4,47.4,1631.8,166.1,2700.0,332.7,423.9,1618,2707.7,238.6,75.5,36.8
0.206000,424.0,48.2,1632.0,175.8,2707.1,338.4,423.7,1617.3,2710.5,238.6,75.5,36.8
0.208000,423.8,49.4,1633.5,189.1,2713.4,343.7,423.5,1617.3,2713.1,238.6,75.4,36.7
0.210000,423.6,50.7,1635.5,199.8,2718.3,346.9,423.3,1617.9,2715.4,238.5,75.4,36.6
0.212000,423.4,51.9,1637.6,203.3,2722.6,346.2,423.2,1619.2,2717.5,238.5,75.3,36.4
0.214000,423.1,52.8,1639.8,200.2,2727.4,342.3,423.1,1621.3,2719.3,238.5,75.3,36.2
0.216000,422.8,53.2,1642.2,195.4,2732.8,338.0,423,1624,2720.9,238.4,75.2,35.9
0.218000,422.6,53.7,1645.0,193.0,2738.9,334.9,423,1627.5,2722.3,238.4,75.2,35.6
0.220000,422.5,54.7,1648.4,193.0,2745.8,332.4,423,1631.7,2723.3,238.3,75.1,35.3
0.222000,422.7,56.0,1652.7,191.1,2752.6,330.1,423.1,1636.7,2724.2,238.2,75.1,35
0.224000,422.8,57.1,1657.9,183.0,2759.2,329.1,423.2,1642.3,2724.8,238.1,75,34.8
0.226000,422.9,57.4,1663.2,169.6,2764.7,330.4,423.3,1648.5,2725.2,238,75,34.7
0.228000,423.0,56.8,1667.4,156.5,2765.8,330.3,423.4,1655.4,2725.3,237.8,75,35
0.230000,423.0,55.5,1670.8,145.9,2759.7,321.8,423.6,1662.8,2725.2,237.6,75,35.4
0.232000,423.1,53.7,1673.2,136.3,2745.9,302.6,423.8,1670.8,2724.9,237.5,74.9,35.7
0.234000,423.2,51.4,1674.4,125.2,2727.2,275.8,424,1679.2,2724.4,237.3,74.9,35.7
0.236000,423.4,48.9,1674.4,113.2,2710.1,250.6,424.2,1687.9,2723.8,237,75,35.3
0.238000,423.6,46.4,1674.0,102.2,2696.8,232.1,424.5,1697,2723,236.8,75,34.5
0.240000,424.0,44.0,1673.3,94.2,2687.0,223.5,424.7,1706.3,2722.1,236.5,75,33.4
0.242000,424.4,42.0,1672.9,90.8,2680.8,225.5,425,1715.7,2721,236.2,75.1,32.2
0.244000,425.0,40.7,1672.6,92.4,2677.4,236.7,425.3,1725.2,2719.9,235.9,75.1,31
0.246000,425.6,39.7,1672.7,100.1,2676.6,256.4,425.5,1734.6,2718.6,235.6,75.2,30
0.248000,426.4,39.2,1674.0,114.3,2678.6,279.5,425.8,1743.9,2717.4,235.3,75.2,29
0.250000,427.2,39.2,1679.4,135.1,2683.0,303.4,426.1,1752.9,2716.1,234.9,75.3,28
0.252000,428.3,39.8,1693.7,160.3,2690.1,327.7,426.3,1761.6,2714.8,234.6,75.4,27
0.254000,429.3,40.6,1718.1,180.6,2700.4,348.5,426.6,1769.9,2713.6,234.2,75.4,26.2
0.256000,430.3,41.3,1750.8,188.4,2716.0,361.0,426.8,1777.7,2712.3,233.8,75.5,25.6
0.258000,431.1,41.8,1786.5,179.0,2736.5,360.1,427.1,1785,2711.2,233.5,75.5,25.4
0.260000,431.6,41.8,1815.0,159.4,2754.3,349.9,427.3,1791.5,2710.1,233.1,75.5,25.3
0.262000,431.5,41.0,1834.0,141.9,2763.7,344.2,427.4,1797.4,2709.2,232.7,75.4,25.2
0.264000,430.7,39.4,1844.5,134.1,2761.1,355.2,427.6,1802.4,2708.3,232.4,75.3,24.7
0.266000,429.3,37.7,1848.5,137.7,2747.4,381.7,427.7,1806.6,2707.6,232,75,23.8
0.268000,427.3,36.5,1849.5,151.2,2727.5,419.6,427.8,1810,2707.1,231.6,74.6,22.3
0.270000,424.6,35.8,1851.2,177.1,2706.9,489.5,427.9,1812.4,2706.6,231.3,74,20.6
0.272000,421.2,35.9,1859.3,219.4,2687.3,665.6,427.9,1813.8,2706.4,231,73.3,18.7
0.274000,417.3,37.9,1881.3,262.8,2622.0,1013.4,428,1814.3,2706.3,230.6,72.3,16.8
