time,f1,b1,f2,b2,f3,b3,f1p,f2p,f3p,f0,intensity,harmonicity
0.026000,491.2,483.1,1882.3,135.9,2976.0,471.0,585.3,1866.5,2893.6,226.5,73.1,10.7
0.028000,516.5,484.8,1871.9,127.8,2942.4,448.4,588.2,1865.9,2892.8,225.7,73.4,11.6
0.030000,545.6,506.6,1864.9,120.8,2921.2,424.4,593,1864.9,2891.5,224.9,73.5,12.6
0.032000,578.0,530.4,1859.9,117.9,2905.4,416.9,599.6,1863.6,2889.6,224,73.7,13.3
0.034000,611.0,539.1,1855.1,119.2,2887.8,423.3,607.9,1861.9,2887.2,223.1,73.8,13.5
0.036000,640.5,534.8,1850.0,124.5,2867.9,437.2,617.8,1859.9,2884.4,222.1,74,12.6
0.038000,664.7,531.7,1845.4,133.2,2850.0,453.2,629,1857.5,2881.2,221.1,74.1,10.3
0.040000,684.5,535.0,1842.7,142.5,2838.1,467.9,641.5,1854.8,2877.6,220.1,74.3,7.3
0.042000,700.7,537.9,1842.8,147.9,2832.5,479.8,654.9,1851.8,2873.7,219.1,74.4,4.5
0.044000,713.9,535.8,1845.2,147.4,2832.2,486.3,669.2,1848.5,2869.6,218.1,74.6,2.8
0.046000,724.4,529.5,1847.8,144.2,2835.7,485.2,684,1844.9,2865.4,217.1,74.7,3
0.048000,732.8,519.9,1848.6,142.1,2839.5,478.9,699.2,1841.1,2861,216,74.7,5.2
0.050000,740.6,508.7,1846.5,143.0,2839.7,473.6,714.5,1837.1,2856.5,215,74.8,8.6
0.052000,749.2,497.9,1841.3,146.0,2834.5,473.3,729.8,1832.9,2852.1,214,74.8,12.1
0.054000,759.0,490.6,1834.9,148.8,2827.5,476.3,744.7,1828.5,2847.8,213,74.9,14.7
0.056000,770.4,487.2,1828.8,150.8,2824.1,479.0,759.2,1824,2843.7,212.1,75,15.6
0.058000,781.9,484.6,1823.9,151.9,2827.8,478.7,773,1819.3,2839.8,211.1,75.1,15
0.060000,791.8,476.9,1819.1,152.6,2837.9,473.7,786,1814.6,2836.1,210.2,75.1,13.7
0.062000,799.3,464.0,1813.9,154.0,2851.5,462.9,798,1809.9,2832.8,209.3,75.2,12.2
0.064000,804.7,452.0,1808.2,156.5,2862.9,446.6,809,1805.1,2829.9,208.4,75.3,11.1
0.066000,809.0,444.5,1802.7,159.9,2865.5,429.6,819,1800.3,2827.4,207.6,75.3,11.1
0.068000,812.4,439.6,1797.0,162.9,2857.4,416.7,827.7,1795.6,2825.3,206.8,75.3,11.9
0.070000,814.3,432.6,1790.1,163.8,2842.3,407.7,835.3,1791,2823.8,206,75.4,13
0.072000,815.3,424.4,1782.6,162.1,2828.0,398.0,841.7,1786.4,2822.8,205.3,75.4,14.3
0.074000,817.3,422.3,1776.5,160.5,2821.9,388.7,847,1782,2822.2,204.6,75.4,15.5
0.076000,821.7,432.3,1773.3,162.9,2824.7,386.0,851.1,1777.7,2822.2,204,75.4,16.2
0.078000,829.0,453.9,1772.1,170.9,2832.9,391.1,854.3,1773.6,2822.8,203.3,75.4,16.9
0.080000,838.1,478.2,1770.9,182.1,2839.9,397.9,856.5,1769.7,2823.8,202.7,75.4,17.4
0.082000,846.6,493.1,1767.3,190.9,2839.0,401.3,857.8,1766,2825.3,202.2,75.4,17.8
0.084000,852.9,496.2,1760.6,193.4,2832.1,400.1,858.5,1762.5,2827.3,201.6,75.4,17.9
0.086000,856.9,493.0,1752.2,189.1,2826.8,397.0,858.6,1759.2,2829.7,201.1,75.5,17.5
0.088000,858.4,485.8,1744.5,180.6,2825.3,397.3,858.2,1756.2,2832.5,200.7,75.5,16.4
0.090000,857.7,475.3,1740.0,172.2,2825.0,404.0,857.4,1753.5,2835.7,200.2,75.4,15
0.092000,856.5,466.5,1739.7,168.5,2825.8,416.1,856.5,1751,2839.1,199.8,75.4,13.7
0.094000,856.7,464.9,1743.0,170.8,2830.0,430.5,855.4,1748.8,2842.9,199.4,75.3,13
0.096000,859.6,472.9,1747.8,177.4,2838.1,440.9,854.4,1746.9,2846.8,199,75.2,13.3
0.098000,863.9,486.4,1751.7,183.6,2846.3,445.1,853.4,1745.2,2850.9,198.7,75.1,14.7
0.100000,866.9,496.6,1753.0,185.3,2850.0,447.1,852.6,1743.8,2855.1,198.3,75,16.6
0.102000,867.1,496.5,1751.3,181.4,2848.4,450.4,852,1742.6,2859.4,198,75,18.7
0.104000,865.5,486.3,1748.3,174.0,2845.5,453.5,851.7,1741.7,2863.7,197.7,74.9,20.4
0.106000,864.8,473.3,1746.9,167.6,2849.9,453.0,851.7,1741,2868,197.5,74.9,21.3
0.108000,865.8,461.8,1747.8,164.5,2864.0,447.1,852,1740.6,2872.3,197.2,74.9,21.8
0.110000,866.9,448.3,1748.8,162.6,2879.5,435.2,852.7,1740.3,2876.4,197,74.9,21.9
0.112000,866.3,429.0,1747.2,158.6,2888.1,420.8,853.6,1740.2,2880.5,196.8,74.9,21.9
0.114000,864.3,407.0,1743.1,150.9,2890.2,407.5,854.8,1740.2,2884.4,196.6,74.9,21.9
0.116000,862.8,390.3,1739.0,141.2,2891.9,398.0,856.2,1740.4,2888.2,196.4,74.9,22.1
0.118000,862.6,383.8,1736.9,132.3,2896.1,395.0,857.7,1740.7,2891.8,196.2,75,22.3
0.120000,863.0,386.7,1737.0,125.9,2901.3,397.3,859.3,1741.1,2895.3,196,75,22.5
0.122000,863.4,395.1,1738.9,122.3,2905.3,399.2,860.9,1741.6,2898.6,195.9,75.1,22.7
0.124000,863.6,404.5,1741.5,120.9,2907.4,395.5,862.4,1742.1,2901.8,195.7,75.1,22.8
0.126000,863.9,412.2,1743.4,120.5,2908.8,386.9,863.8,1742.7,2904.8,195.6,75.1,23
0.128000,864.1,419.6,1744.2,120.9,2911.5,378.8,864.9,1743.3,2907.7,195.4,75.1,23.4
0.130000,864.2,428.8,1744.3,121.6,2917.1,373.7,865.7,1743.8,2910.6,195.3,75.1,23.8
0.132000,863.1,436.5,1744.1,121.1,2924.5,370.9,866,1744.4,2913.4,195.2,75.1,24
0.134000,858.7,434.0,1743.3,117.6,2928.3,371.0,865.9,1744.9,2916.1,195.1,75.1,23.9
0.136000,851.7,420.4,1742.5,111.2,2924.6,370.8,865.2,1745.4,2918.9,194.9,75.1,23.3
0.138000,845.0,403.9,1742.3,104.1,2916.7,365.5,864,1745.8,2921.6,194.8,75.1,22
0.140000,839.9,390.5,1742.8,98.2,2911.7,355.6,862.1,1746.1,2924.4,194.7,75.1,20.3
0.142000,836.3,380.8,1743.5,94.0,2914.3,342.0,859.6,1746.3,2927.3,194.6,75.1,18.6
0.144000,834.2,375.1,1743.8,91.2,2924.7,323.6,856.5,1746.5,2930.3,194.5,75.1,17.3
0.146000,833.4,373.5,1743.2,89.6,2937.6,302.5,852.7,1746.6,2933.5,194.3,75.2,16.8
0.148000,832.8,374.2,1742.2,88.7,2947.3,284.4,848.2,1746.5,2936.7,194.2,75.2,16.8
0.150000,831.5,373.6,1741.7,88.2,2950.9,273.5,843.2,1746.4,2940.1,194.1,75.2,17.2
0.152000,829.2,369.7,1742.6,87.2,2948.7,269.2,837.5,1746.2,2943.7,193.9,75.3,17.7
0.154000,827.0,366.0,1744.5,85.6,2944.4,267.9,831.3,1745.9,2947.4,193.7,75.3,18.1
0.156000,825.6,367.5,1745.4,83.3,2942.1,266.5,824.7,1745.5,2951.2,193.6,75.3,18
0.158000,824.2,376.2,1744.6,80.5,2944.0,263.7,817.7,1745.1,2955.2,193.4,75.3,17.8
0.160000,821.3,391.3,1743.1,77.7,2949.7,258.5,810.4,1744.5,2959.3,193.2,75.4,17.4
0.162000,816.5,409.9,1743.0,75.8,2957.5,249.9,802.8,1744,2963.5,193,75.4,16.9
0.164000,810.1,428.1,1744.8,75.4,2965.8,240.5,795.1,1743.3,2967.8,192.9,75.3,16.5
0.166000,803.8,442.3,1747.4,76.9,2973.2,233.5,787.3,1742.7,2972.1,192.7,75.3,16.1
0.168000,799.5,450.6,1749.5,79.4,2979.1,230.8,779.5,1742,2976.3,192.5,75.3,15.9
0.170000,796.8,454.9,1750.8,82.4,2984.2,231.3,771.9,1741.3,2980.5,192.2,75.3,15.6
0.172000,794.3,456.5,1751.1,84.9,2988.2,232.8,764.5,1740.6,2984.6,192,75.2,15.3
0.174000,790.6,456.9,1750.5,87.1,2990.3,233.4,757.4,1739.9,2988.6,191.8,75.2,15
0.176000,785.2,456.5,1748.9,89.7,2990.7,234.4,750.8,1739.2,2992.3,191.6,75.1,14.6
0.178000,778.0,454.7,1746.6,92.8,2989.9,238.1,744.5,1738.6,2995.8,191.4,75,14
0.180000,769.2,453.2,1743.9,95.7,2988.8,243.7,738.9,1738,2999.1,191.2,74.9,13.3
0.182000,759.0,457.0,1741.0,98.5,2989.3,247.6,733.8,1737.5,3002,191,74.8,12.7
0.184000,746.5,471.8,1738.3,101.7,2993.5,246.9,729.4,1737,3004.5,190.7,74.6,12.4
0.186000,730.6,501.7,1735.4,106.0,3001.4,239.9,725.8,1736.6,3006.6,190.5,74.4,12.3
0.188000,710.9,548.4,1731.8,110.7,3010.9,223.8,722.9,1736.3,3008.3,190.3,74.2,12.7
0.190000,686.4,613.9,1727.4,114.3,3019.6,198.0,720.8,1736.1,3009.5,190.2,73.9,13.4
0.192000,655.8,690.4,1722.2,115.4,3025.6,168.8,719.5,1735.9,3010.2,190,73.6,14
0.194000,618.1,738.5,1716.1,112.9,3028.6,145.0,719.1,1735.9,3010.4,189.8,73.3,14.3
