time,f1,b1,f2,b2,f3,b3,f1p,f2p,f3p,f0,intensity,harmonicity
0.026000,422.8,194.5,1751.1,69.9,2704.0,141.2,466.3,1726.7,2670.9,190.2,73.9,4.3
0.028000,428.4,228.4,1747.2,62.9,2699.9,146.3,467.1,1726.8,2670.7,189.9,74.2,5.4
0.030000,436.4,256.8,1740.8,60.7,2690.3,160.0,468.4,1726.9,2670.4,189.6,74.5,7
0.032000,446.2,268.1,1734.2,60.7,2677.2,176.0,470.1,1727,2670,189.3,74.6,8.7
0.034000,458.1,264.7,1728.6,62.2,2661.4,191.3,472.3,1727.1,2669.4,188.9,74.8,10.2
0.036000,470.6,253.3,1725.1,65.5,2646.9,202.9,474.9,1727.1,2668.7,188.6,74.9,11.3
0.038000,482.9,241.4,1723.5,70.9,2639.0,209.5,477.8,1727.1,2667.8,188.2,75,12.2
0.040000,494.4,235.5,1723.4,78.2,2641.1,210.6,481.1,1727,2666.8,187.9,75,13
0.042000,504.2,237.8,1724.2,85.3,2649.6,207.6,484.6,1726.6,2665.7,187.5,75.1,13.7
0.044000,512.9,246.0,1724.5,90.0,2658.7,202.8,488.3,1726.1,2664.5,187.2,75.1,14.2
0.046000,519.7,255.6,1723.9,90.9,2664.4,199.1,492.1,1725.4,2663.2,186.8,75.1,14.6
0.048000,524.7,262.6,1722.8,89.9,2667.3,195.7,496,1724.3,2661.7,186.5,75.1,14.7
0.050000,528.0,264.8,1721.9,89.2,2668.0,191.2,499.9,1722.9,2660.2,186.1,75.1,14.7
0.052000,529.9,263.8,1720.4,89.7,2665.5,185.3,503.7,1721.1,2658.5,185.7,75.1,14.6
0.054000,530.7,263.0,1718.0,91.1,2658.3,179.7,507.4,1718.8,2656.7,185.4,75,14.7
0.056000,530.3,265.0,1714.2,92.7,2648.5,176.4,510.8,1716.1,2654.8,185,75,14.9
0.058000,528.9,268.6,1708.7,94.0,2639.5,176.3,514,1713,2652.9,184.7,74.9,15.3
0.060000,527.1,272.5,1702.3,94.6,2635.2,178.1,516.9,1709.3,2650.8,184.3,74.8,15.7
0.062000,525.4,280.3,1695.3,95.7,2636.9,180.6,519.5,1705.1,2648.7,184,74.7,16.2
0.064000,523.8,292.1,1687.9,97.0,2642.5,182.4,521.6,1700.4,2646.6,183.7,74.6,16.7
0.066000,522.0,303.0,1680.0,96.2,2647.5,182.7,523.3,1695.1,2644.4,183.4,74.6,17.1
0.068000,520.0,310.6,1672.3,92.2,2649.7,181.2,524.6,1689.3,2642.1,183.1,74.5,17.5
0.070000,518.2,314.7,1665.3,87.2,2648.3,177.1,525.4,1683.1,2639.9,182.8,74.5,17.9
0.072000,516.8,316.7,1658.5,82.7,2643.7,168.6,525.7,1676.4,2637.6,182.5,74.5,18.3
0.074000,515.3,315.9,1651.5,78.9,2638.0,158.2,525.6,1669.2,2635.4,182.3,74.5,18.6
0.076000,513.7,307.8,1644.3,73.6,2633.4,150.8,524.9,1661.6,2633.2,182,74.5,18.9
0.078000,511.7,290.7,1637.4,65.9,2631.0,151.2,523.9,1653.7,2631,181.7,74.5,19.2
0.080000,509.5,270.3,1631.5,58.1,2631.3,161.2,522.4,1645.5,2628.9,181.5,74.5,19.4
0.082000,507.3,250.2,1626.6,51.7,2634.6,178.3,520.5,1637,2626.9,181.3,74.5,19.6
0.084000,505.1,233.3,1622.9,47.8,2639.7,193.1,518.3,1628.3,2624.9,181.1,74.5,19.8
0.086000,503.0,220.1,1620.1,46.4,2642.0,198.9,515.7,1619.5,2623.1,180.8,74.5,20
0.088000,501.4,212.0,1618.2,46.9,2638.3,197.0,512.9,1610.6,2621.3,180.6,74.6,20.2
0.090000,500.2,207.1,1616.4,48.9,2630.2,190.4,509.8,1601.7,2619.7,180.4,74.6,20.4
0.092000,499.2,203.0,1614.4,51.6,2622.7,181.6,506.5,1592.8,2618.3,180.2,74.6,20.6
0.094000,498.0,196.9,1611.8,55.4,2617.9,174.1,503.2,1583.9,2616.9,180,74.5,20.8
0.096000,496.4,189.8,1608.5,61.0,2615.0,172.6,499.7,1575.2,2615.8,179.8,74.5,20.9
0.098000,494.6,183.5,1603.9,69.1,2612.1,180.0,496.2,1566.5,2614.7,179.6,74.5,21
0.100000,492.4,178.4,1595.9,79.9,2607.3,198.3,492.8,1558.1,2613.9,179.4,74.5,21
0.102000,490.2,174.9,1583.9,91.2,2600.6,223.6,489.4,1549.8,2613.2,179.2,74.5,21
0.104000,488.3,173.8,1568.9,101.3,2595.6,241.8,486.1,1541.8,2612.6,179,74.5,21
0.106000,486.8,175.0,1553.5,110.0,2596.1,238.2,482.9,1533.9,2612.2,178.8,74.6,21
0.108000,485.4,176.3,1540.4,117.4,2598.6,218.7,479.9,1526.3,2612,178.6,74.6,21
0.110000,484.0,176.7,1529.5,124.4,2598.7,197.4,477.1,1518.8,2611.8,178.4,74.6,21
0.112000,482.6,177.3,1520.0,130.5,2596.7,183.0,474.6,1511.6,2611.8,178.2,74.7,20.9
0.114000,481.0,179.0,1508.0,133.5,2595.6,173.1,472.2,1504.4,2612,178,74.7,20.9
0.116000,479.1,181.7,1493.5,129.8,2598.8,163.5,470,1497.4,2612.2,177.8,74.8,21
0.118000,476.7,185.3,1477.6,119.5,2606.5,152.0,468.1,1490.5,2612.5,177.6,74.8,21.1
0.120000,474.1,187.9,1463.2,106.8,2614.6,140.0,466.4,1483.6,2612.9,177.4,74.9,21.2
0.122000,471.5,189.2,1451.0,95.5,2620.3,128.3,464.9,1476.8,2613.3,177.1,74.9,21.4
0.124000,469.0,189.3,1440.6,86.8,2623.9,118.0,463.6,1469.9,2613.7,176.9,75,21.5
0.126000,466.8,186.8,1432.3,80.1,2626.9,110.0,462.5,1462.9,2614.1,176.7,75,21.6
0.128000,464.6,180.4,1425.0,73.7,2630.8,104.0,461.5,1455.8,2614.5,176.5,75.1,21.7
0.130000,462.3,171.4,1418.8,68.2,2634.5,100.7,460.6,1448.6,2614.9,176.3,75.1,21.8
0.132000,460.3,163.0,1413.3,64.2,2634.7,98.6,459.8,1441.2,2615.2,176.1,75.1,22
0.134000,458.6,157.2,1408.0,62.2,2630.2,95.3,459.1,1433.6,2615.4,175.9,75.1,22.2
0.136000,457.3,154.4,1403.4,62.4,2623.5,90.6,458.3,1425.8,2615.6,175.7,75.1,22.4
0.138000,456.3,152.9,1399.1,64.5,2618.1,85.0,457.6,1417.8,2615.6,175.5,75,22.8
0.140000,455.5,152.0,1395.6,68.8,2615.3,79.8,456.8,1409.5,2615.4,175.3,75,23.2
0.142000,454.8,150.6,1392.9,75.1,2613.7,75.7,455.9,1401.1,2615.1,175.1,75,23.7
0.144000,454.1,147.9,1390.5,81.7,2611.8,73.6,454.9,1392.6,2614.6,174.9,75,24.1
0.146000,453.0,144.8,1387.8,87.6,2610.1,74.0,453.8,1383.9,2613.9,174.7,74.9,24.6
0.148000,451.5,142.3,1384.1,93.8,2609.0,76.6,452.5,1375.1,2613,174.5,74.9,25.2
0.150000,449.7,141.2,1378.5,101.3,2608.9,79.7,451,1366.4,2612,174.3,74.9,25.7
0.152000,447.4,141.9,1371.0,110.6,2609.1,81.7,449.4,1357.7,2610.7,174.1,74.8,26.2
0.154000,445.0,143.7,1363.7,120.2,2608.4,82.7,447.6,1349.2,2609.2,174,74.8,26.6
0.156000,442.4,146.6,1358.0,128.6,2606.4,84.1,445.6,1340.9,2607.4,173.8,74.7,26.7
0.158000,439.8,151.1,1354.3,135.4,2603.0,86.9,443.4,1333,2605.5,173.6,74.6,26.5
0.160000,437.1,156.3,1349.9,141.3,2598.6,90.9,441.1,1325.5,2603.4,173.5,74.6,26.1
0.162000,434.3,161.6,1342.4,145.8,2594.0,95.2,438.6,1318.6,2601,173.3,74.5,25.8
0.164000,431.4,166.5,1332.8,148.4,2590.0,98.6,436,1312.4,2598.5,173.2,74.5,25.6
0.166000,428.4,170.0,1322.8,148.6,2587.2,100.2,433.3,1307,2595.7,173,74.4,25.7
0.168000,425.4,171.1,1314.3,146.2,2585.8,99.7,430.5,1302.5,2592.9,172.9,74.3,26
0.170000,422.6,170.8,1307.6,143.1,2584.6,98.5,427.6,1298.9,2589.8,172.7,74.3,26.5
0.172000,420.2,169.2,1302.5,139.5,2583.4,98.9,424.8,1296.5,2586.6,172.6,74.2,27.1
0.174000,418.1,166.5,1298.8,135.3,2582.4,102.5,421.9,1295.2,2583.3,172.5,74.2,27.6
0.176000,416.0,162.9,1296.3,130.3,2581.5,108.6,419.1,1295.2,2579.9,172.3,74.2,27.9
0.178000,414.2,158.7,1295.7,125.9,2579.8,114.0,416.3,1296.5,2576.5,172.2,74.1,28.2
0.180000,412.6,154.8,1297.4,123.7,2576.5,117.3,413.7,1299.2,2572.9,172.1,74.1,28.4
0.182000,411.4,152.1,1302.0,124.6,2571.9,119.2,411.2,1303.2,2569.4,171.9,74.1,28.6
0.184000,410.5,150.4,1310.3,127.6,2566.6,119.3,408.9,1308.6,2565.8,171.8,74,28.7
0.186000,409.7,149.5,1322.2,131.7,2562.1,116.2,406.8,1315.5,2562.2,171.7,74,28.7
0.188000,408.8,148.5,1335.8,134.2,2559.2,110.3,404.9,1323.6,2558.6,171.5,74,28.8
0.190000,408.0,146.5,1348.8,131.9,2557.5,103.8,403.2,1333.1,2555.1,171.4,74,28.8
0.192000,407.1,144.6,1359.6,125.1,2555.4,98.4,401.8,1343.8,2551.6,171.2,74,28.6
0.194000,406.1,142.7,1368.3,114.9,2552.3,92.9,400.6,1355.6,2548.2,171.1,73.9,28.3
0.196000,405.1,140.2,1374.8,102.5,2548.6,86.2,399.7,1368.5,2544.9,171,73.9,27.6
0.198000,404.1,137.9,1380.2,89.6,2544.8,79.2,399,1382.3,2541.7,170.8,73.9,26.6
0.200000,403.1,136.8,1385.3,77.0,2541.5,74.0,398.6,1396.8,2538.6,170.7,73.9,25.4
0.202000,402.4,137.4,1390.0,66.1,2539.2,72.3,398.4,1411.9,2535.6,170.5,73.9,24
0.204000,402.0,140.5,1395.1,57.0,2536.9,74.0,398.4,1427.4,2532.8,170.3,73.9,22.7
0.206000,401.8,145.7,1400.2,51.4,2534.0,78.2,398.6,1443.2,2530.1,170.2,73.9,21.5
0.208000,402.0,152.4,1406.0,49.4,2530.5,82.8,398.9,1459,2527.6,170,73.9,20.2
0.210000,402.6,161.8,1414.3,50.9,2526.7,86.1,399.5,1474.7,2525.3,169.9,73.9,18.9
0.212000,403.9,172.4,1426.7,55.7,2522.7,86.6,400.1,1490,2523.1,169.7,73.9,17.7
0.214000,406.0,181.4,1446.4,64.0,2518.5,84.1,400.8,1504.8,2521.2,169.5,73.8,16.7
0.216000,407.8,182.7,1474.0,73.8,2515.5,79.0,401.6,1518.8,2519.4,169.4,73.8,16.3
0.218000,408.0,171.7,1505.6,79.4,2514.2,72.7,402.3,1532,2517.7,169.2,73.7,16.3
0.220000,406.9,155.6,1532.8,77.1,2514.1,67.4,403.1,1544,2516.3,169,73.7,16.6
0.222000,405.4,144.0,1555.1,71.0,2514.0,64.6,403.8,1554.8,2515.1,168.9,73.7,16.9
0.224000,404.2,140.8,1573.6,67.4,2513.6,65.8,404.5,1564.2,2514,168.7,73.6,17.2
0.226000,403.0,142.6,1592.9,69.3,2512.7,71.3,405.1,1572,2513.2,168.5,73.6,17.3
0.228000,400.9,144.5,1616.1,74.4,2511.3,79.5,405.6,1578.3,2512.5,168.4,73.5,17.4
0.230000,397.4,142.5,1640.2,77.2,2510.0,84.7,405.9,1582.8,2512,168.2,73.4,17.4
0.232000,392.7,139.5,1662.0,75.1,2509.7,83.9,406.1,1585.5,2511.7,168.1,73.3,17.2
0.234000,387.0,139.8,1677.6,70.5,2510.5,79.2,406.2,1586.4,2511.6,167.9,73.1,16.7
