time,f1,b1,f2,b2,f3,b3,f1p,f2p,f3p,f0,intensity,harmonicity
0.026000,408.6,269.2,2080.2,54.0,2651.2,295.0,431.2,2113,2695.2,189.5,74.8,4.5
0.028000,410.8,270.5,2090.2,57.4,2668.2,290.9,432.3,2115,2695.8,189.1,75,4.4
0.030000,415.6,280.8,2104.2,62.6,2676.1,288.6,434.1,2118.2,2696.7,188.6,75.2,4.2
0.032000,423.5,295.4,2120.0,66.0,2680.6,289.4,436.5,2122.5,2698.1,188.1,75.4,4.1
0.034000,434.5,303.1,2133.4,66.7,2687.2,289.5,439.4,2127.9,2699.9,187.6,75.6,4.2
0.036000,446.4,299.2,2142.7,66.9,2696.2,286.4,442.6,2134.2,2702.2,187,75.7,4.9
0.038000,457.3,290.5,2150.7,68.3,2706.4,280.9,446,2141.2,2705.1,186.5,75.9,6.1
0.040000,466.3,284.2,2159.6,70.5,2715.0,272.4,449.4,2148.7,2708.4,186,76,7.6
0.042000,473.8,284.5,2170.4,71.9,2722.5,256.9,452.6,2156.6,2712.4,185.5,76,9.1
0.044000,480.3,296.7,2182.3,72.5,2733.6,236.0,455.4,2164.6,2716.9,184.9,76.1,10.3
0.046000,484.3,323.5,2192.1,75.0,2747.2,217.5,457.8,2172.6,2722,184.4,76.1,10.9
0.048000,484.3,368.0,2198.9,82.1,2760.8,204.3,459.6,2180.3,2727.7,183.9,76,10.9
0.050000,479.5,422.8,2202.6,92.8,2772.0,196.7,460.6,2187.6,2733.9,183.5,75.9,10.6
0.052000,471.3,472.8,2203.2,102.6,2780.0,193.9,460.9,2194.3,2740.6,183,75.9,10.2
0.054000,459.7,518.7,2202.1,107.8,2786.4,196.3,460.3,2200.2,2747.7,182.6,75.8,10.1
0.056000,445.9,564.5,2201.2,107.6,2791.8,201.3,459,2205.3,2755.1,182.2,75.7,10.7
0.058000,433.7,600.4,2200.7,103.9,2793.6,204.7,456.9,2209.4,2762.6,181.9,75.7,11.8
0.060000,427.9,614.9,2200.3,99.8,2788.8,205.7,454.2,2212.4,2770.2,181.6,75.7,13.3
0.062000,428.3,615.9,2201.6,97.6,2780.4,204.9,451,2214.3,2777.6,181.3,75.7,14.7
0.064000,432.6,607.6,2205.4,97.9,2772.1,203.1,447.4,2215.2,2784.9,181,75.7,15.6
0.066000,437.3,598.5,2209.7,99.6,2768.5,200.8,443.6,2215,2791.7,180.8,75.6,15.6
0.068000,440.4,590.5,2211.9,100.2,2769.8,197.9,439.8,2213.8,2797.9,180.6,75.6,14.8
0.070000,441.3,579.5,2210.2,98.6,2772.8,195.5,436.2,2211.7,2803.5,180.5,75.4,13.4
0.072000,439.8,568.4,2205.2,95.9,2775.5,196.9,433,2208.7,2808.3,180.3,75.3,12.1
0.074000,436.5,563.0,2199.1,93.5,2778.5,206.0,430.2,2204.9,2812.1,180.2,75.2,11.3
0.076000,432.2,563.8,2193.4,91.6,2782.7,223.0,428.2,2200.6,2815,180.2,75.1,11.4
0.078000,428.5,564.2,2188.7,89.7,2785.5,241.3,427,2195.8,2816.9,180.1,75.1,12.4
0.080000,426.9,554.7,2185.6,87.6,2783.1,253.3,426.6,2190.7,2817.8,180.1,75.1,13.8
0.082000,427.6,534.1,2183.3,84.6,2776.9,258.6,427.2,2185.3,2817.7,180.1,75.1,15.4
0.084000,430.1,513.7,2180.7,80.2,2774.1,259.4,428.7,2179.8,2816.7,180,75.2,16.8
0.086000,433.1,504.8,2177.3,74.2,2782.3,256.5,431,2174.4,2814.9,180,75.2,17.7
0.088000,435.2,508.5,2173.2,68.2,2802.8,250.5,434.1,2169,2812.4,180.1,75.2,18.3
0.090000,437.3,511.2,2168.7,63.2,2826.8,239.2,437.9,2163.9,2809.4,180.1,75.2,18.7
0.092000,440.5,502.4,2164.4,59.5,2845.5,222.9,442.1,2159,2806.1,180.1,75.2,19.1
0.094000,444.2,487.8,2160.6,57.7,2854.7,208.9,446.5,2154.5,2802.6,180.1,75.2,19.3
0.096000,448.6,470.4,2156.3,57.2,2855.3,202.2,451,2150.2,2799.1,180.1,75.1,19.5
0.098000,453.1,452.4,2150.8,57.2,2849.8,205.1,455.3,2146.3,2796,180.2,75.1,19.6
0.100000,457.3,440.7,2144.6,57.9,2841.5,216.3,459.1,2142.6,2793.3,180.2,75.1,19.6
0.102000,460.7,441.3,2140.0,59.7,2833.2,232.2,462.3,2139.2,2791.3,180.2,75,19.6
0.104000,463.5,454.6,2137.7,63.2,2825.4,250.8,464.5,2136,2790,180.2,75,19.6
0.106000,465.7,475.8,2136.9,67.5,2818.9,269.3,465.7,2132.9,2789.7,180.2,75,19.7
0.108000,467.2,498.9,2136.0,71.5,2814.6,285.6,465.7,2129.9,2790.4,180.2,75,20
0.110000,467.6,519.1,2133.8,74.7,2811.1,298.5,464.3,2126.8,2792.1,180.2,74.9,20.3
0.112000,467.1,530.2,2130.7,77.2,2805.3,305.7,461.6,2123.6,2794.9,180.2,74.9,20.5
0.114000,466.5,528.2,2126.2,80.5,2792.9,311.1,457.6,2120.1,2798.6,180.1,74.9,20.5
0.116000,465.7,521.4,2118.7,86.3,2770.4,321.5,452.2,2116.3,2803.3,180.1,74.8,20
0.118000,462.2,543.7,2108.0,96.1,2745.8,345.2,445.6,2112,2808.8,180,74.8,18.8
0.120000,451.7,618.8,2096.5,108.2,2733.4,388.0,438,2107.3,2814.9,180,74.8,17.3
0.122000,433.0,725.3,2088.3,116.1,2745.3,433.6,429.5,2102.1,2821.4,179.9,74.8,15.9
0.124000,413.6,813.5,2082.3,117.5,2774.5,454.1,420.5,2096.2,2828,179.8,74.8,15.1
0.126000,404.7,849.4,2076.6,115.1,2802.5,439.5,411.1,2089.7,2834.6,179.8,74.7,15.2
0.128000,403.2,857.8,2071.6,112.6,2821.9,412.6,401.8,2082.6,2840.9,179.7,74.7,16.5
0.130000,399.1,878.8,2067.5,112.1,2836.1,396.9,392.7,2074.9,2846.7,179.6,74.7,18.4
0.132000,383.5,938.5,2063.7,114.3,2850.1,394.7,384.2,2066.5,2851.6,179.5,74.7,20.3
0.134000,350.2,1040.7,2058.3,117.3,2867.2,389.3,376.5,2057.6,2855.5,179.4,74.7,21.7
0.136000,311.9,1132.6,2049.8,118.4,2881.6,376.2,369.9,2048.2,2858.2,179.2,74.7,22
0.138000,304.4,1145.6,2038.7,117.1,2889.1,364.1,364.6,2038.3,2859.6,179.1,74.7,21.5
0.140000,326.2,1092.1,2029.4,115.0,2889.8,358.0,360.8,2028.1,2859.5,179,74.7,20.4
0.142000,354.6,1011.1,2022.4,113.4,2884.0,359.7,358.6,2017.6,2857.9,178.9,74.7,19.2
0.144000,376.8,933.7,2014.9,111.8,2872.2,365.0,357.9,2007,2854.9,178.7,74.7,18.2
0.146000,389.0,881.7,2004.3,106.9,2859.1,364.0,358.9,1996.3,2850.4,178.6,74.7,17.8
0.148000,394.7,850.4,1991.1,96.7,2850.4,352.2,361.4,1985.7,2844.6,178.5,74.7,17.8
0.150000,397.3,830.0,1979.6,84.4,2850.8,336.8,365.3,1975.2,2837.6,178.3,74.7,17.9
0.152000,398.6,812.4,1970.7,73.1,2859.3,326.3,370.4,1965.1,2829.7,178.2,74.7,18.2
0.154000,401.4,785.1,1962.7,64.1,2868.2,329.5,376.5,1955.4,2821.1,178,74.7,18.4
0.156000,407.6,735.9,1954.3,57.6,2863.3,353.9,383.4,1946.3,2812.1,177.9,74.7,18.6
0.158000,414.3,671.9,1946.0,53.4,2831.9,381.2,390.6,1937.8,2802.9,177.8,74.6,18.9
0.160000,417.9,621.8,1939.0,50.8,2794.4,371.6,398,1930,2793.9,177.6,74.6,19.2
0.162000,418.9,590.4,1932.7,48.7,2773.6,348.2,405.1,1923.1,2785.3,177.5,74.6,19.5
0.164000,418.2,567.7,1926.0,47.0,2763.3,343.3,411.8,1917.1,2777.6,177.4,74.5,19.4
0.166000,415.7,549.9,1917.9,46.4,2753.1,364.3,417.6,1912.1,2770.8,177.2,74.5,18.9
0.168000,410.3,541.0,1907.8,47.5,2740.3,404.1,422.5,1908.2,2765.2,177.1,74.4,17.8
0.170000,402.2,539.4,1896.8,50.0,2731.8,441.5,426.1,1905.3,2761.2,177,74.2,16.4
0.172000,392.4,532.0,1884.2,52.8,2730.7,469.7,428.3,1903.6,2758.6,176.9,74.1,15
0.174000,383.6,497.5,1870.2,55.0,2724.4,499.2,429.1,1903,2757.8,176.8,73.9,13.8
