time,f1,b1,f2,b2,f3,b3,f1p,f2p,f3p,f0,intensity,harmonicity
0.026000,360.1,25.8,1097.1,339.6,2109.6,64.5,357.5,1098.7,2139.9,195.1,74.1,33.2
0.028000,359.4,24.4,1107.9,295.7,2114.4,58.9,357.5,1100.6,2139.8,195.1,74.1,32.8
0.030000,358.8,23.1,1115.1,257.1,2120.1,54.4,357.4,1103.9,2139.7,195.1,74.2,32.1
0.032000,358.3,21.3,1121.0,216.8,2126.5,49.6,357.2,1108.3,2139.5,195.2,74.2,31.2
0.034000,357.7,19.5,1128.0,181.0,2132.2,45.1,357.1,1113.9,2139.2,195.2,74.2,30.4
0.036000,357.0,18.0,1137.0,152.4,2136.9,41.2,356.9,1120.6,2138.9,195.3,74.2,29.9
0.038000,356.2,17.1,1146.5,130.9,2140.7,37.9,356.6,1128.2,2138.5,195.3,74.2,29.5
0.040000,355.4,16.6,1153.8,115.8,2143.9,35.0,356.3,1136.7,2138,195.3,74.2,29.1
0.042000,354.6,16.3,1159.8,104.1,2147.2,32.6,356,1145.8,2137.4,195.4,74.1,28.8
0.044000,353.9,16.4,1165.5,96.6,2150.2,31.5,355.6,1155.5,2136.8,195.4,74.1,28.6
0.046000,353.4,16.9,1171.5,93.5,2152.5,31.8,355.2,1165.5,2136.1,195.4,74.1,28.5
0.048000,353.0,17.9,1177.5,96.0,2153.8,33.8,354.8,1175.8,2135.4,195.5,74,28.5
0.050000,352.7,19.3,1182.0,106.1,2153.8,37.1,354.3,1186.3,2134.6,195.5,74,28.5
0.052000,352.4,21.1,1185.2,127.1,2153.0,42.5,353.8,1196.6,2133.8,195.5,74,28.7
0.054000,352.0,23.0,1186.9,159.3,2151.9,50.1,353.3,1206.8,2133.1,195.5,74,29
0.056000,351.6,25.2,1187.9,207.2,2151.0,62.4,352.7,1216.7,2132.3,195.6,73.9,29.4
0.058000,351.2,27.5,1189.1,267.2,2150.3,80.4,352,1226.2,2131.6,195.6,73.9,30.2
0.060000,350.8,29.9,1191.2,339.8,2149.5,105.8,351.4,1235.2,2130.9,195.6,73.9,31.2
0.062000,350.5,32.1,1195.7,426.1,2146.6,139.7,350.7,1243.5,2130.5,195.6,73.9,32
0.064000,350.2,33.8,1204.0,513.4,2138.8,173.7,349.9,1251.2,2130.1,195.6,73.8,32.7
0.066000,349.9,35.0,1218.0,601.2,2126.1,199.9,349.1,1258.1,2130,195.6,73.8,32.8
0.068000,349.5,36.0,1236.1,680.4,2116.1,215.6,348.3,1264.3,2130.2,195.6,73.8,32.5
0.070000,349.1,37.1,1256.0,758.9,2112.5,230.7,347.4,1269.7,2130.6,195.7,73.8,31.9
0.072000,348.5,38.1,1271.9,821.9,2114.1,245.6,346.5,1274.3,2131.4,195.7,73.8,31.2
0.074000,347.6,38.9,1284.7,854.7,2118.1,257.3,345.5,1278.2,2132.6,195.7,73.8,30.6
0.076000,346.3,39.3,1296.9,845.3,2122.4,265.2,344.5,1281.3,2134.2,195.7,73.7,30.3
0.078000,344.7,39.4,1305.7,803.6,2125.3,269.0,343.4,1283.8,2136.3,195.7,73.7,30.1
0.080000,342.9,39.4,1308.5,759.8,2125.9,272.8,342.3,1285.6,2138.9,195.7,73.6,30
0.082000,341.5,40.1,1310.5,749.6,2123.5,287.4,341.1,1286.8,2142,195.7,73.6,29.9
0.084000,340.1,41.1,1318.6,754.4,2119.6,314.6,339.9,1287.6,2145.6,195.7,73.5,30
0.086000,338.6,41.2,1332.5,724.2,2119.9,339.8,338.7,1287.9,2149.8,195.6,73.5,30.2
0.088000,337.0,40.3,1342.3,655.6,2130.6,340.2,337.4,1287.9,2154.5,195.6,73.5,30.5
0.090000,335.4,38.9,1344.6,589.4,2150.9,311.7,336.1,1287.7,2159.7,195.6,73.4,31.1
0.092000,334.0,38.0,1342.2,565.5,2171.1,275.6,334.8,1287.2,2165.4,195.6,73.4,31.6
0.094000,332.6,38.3,1336.0,588.9,2186.6,249.4,333.4,1286.6,2171.6,195.6,73.4,32
0.096000,331.4,39.8,1324.4,646.9,2195.0,242.5,332.1,1285.9,2178.1,195.6,73.3,32.4
0.098000,330.4,42.1,1307.1,718.5,2198.5,251.1,330.7,1285.2,2185.1,195.6,73.3,32.5
0.100000,329.3,44.3,1286.0,770.1,2200.4,264.8,329.4,1284.6,2192.2,195.5,73.3,32.7
0.102000,327.9,45.1,1266.8,762.7,2205.3,263.7,328.1,1284,2199.6,195.5,73.2,32.8
0.104000,326.2,44.5,1248.7,713.1,2216.1,241.0,326.8,1283.5,2207.1,195.5,73.2,33
0.106000,324.8,44.4,1232.6,684.2,2228.9,214.7,325.5,1283.1,2214.6,195.4,73.1,33.3
0.108000,323.7,45.8,1218.9,696.7,2240.3,198.3,324.3,1282.9,2222.1,195.4,73.1,33.7
0.110000,322.8,47.7,1217.8,714.2,2247.6,196.3,323.1,1282.8,2229.4,195.4,73.1,34.1
0.112000,321.7,47.9,1238.2,677.3,2250.7,207.4,322,1282.8,2236.4,195.3,73,34.6
0.114000,320.3,46.6,1265.0,591.4,2253.6,219.1,321,1282.9,2243,195.3,73,35.1
0.116000,319.1,44.8,1278.0,508.7,2259.2,214.2,320.1,1283.2,2249.2,195.3,72.9,35.6
0.118000,318.0,42.5,1278.0,442.9,2267.2,193.5,319.2,1283.5,2254.9,195.2,72.9,36.2
0.120000,317.2,40.2,1273.4,398.9,2273.3,174.5,318.5,1284,2260,195.2,72.9,36.9
0.122000,316.6,38.0,1270.1,370.0,2275.6,167.0,317.9,1284.5,2264.4,195.2,72.9,37.4
0.124000,316.4,36.4,1269.1,357.2,2272.6,173.6,317.3,1285.1,2268.1,195.1,72.9,37.8
0.126000,316.4,36.1,1268.9,365.6,2264.9,189.5,316.9,1285.8,2271,195.1,72.9,37.8
0.128000,316.7,37.4,1268.6,396.9,2255.6,208.6,316.6,1286.7,2273.2,195,72.8,37.5
0.130000,317.2,39.3,1270.5,433.6,2248.7,224.2,316.4,1287.7,2274.6,195,72.8,37
0.132000,317.7,40.6,1278.3,451.9,2244.8,238.1,316.4,1288.8,2275.3,195,72.8,36.5
0.134000,318.1,41.3,1291.3,452.4,2244.7,252.3,316.4,1290.2,2275.3,195,72.8,36.1
0.136000,318.6,43.1,1307.2,472.5,2251.1,271.8,316.5,1291.8,2274.6,194.9,72.8,36
0.138000,319.4,46.9,1324.8,544.9,2264.2,297.1,316.8,1293.8,2273.3,194.9,72.8,36.1
0.140000,320.3,50.3,1335.8,646.0,2274.2,310.6,317.1,1296.3,2271.5,194.9,72.8,36.3
0.142000,320.8,52.0,1337.4,735.0,2274.8,313.7,317.5,1299.2,2269.3,194.9,72.8,36.6
0.144000,321.1,52.3,1340.1,776.2,2265.9,326.4,318,1302.8,2266.8,194.8,72.8,36.8
0.146000,321.3,52.0,1349.1,776.8,2250.8,350.0,318.6,1307.1,2264.1,194.8,72.8,37
0.148000,321.1,49.7,1351.7,720.5,2239.0,348.8,319.2,1312.3,2261.3,194.8,72.8,37.2
0.150000,320.5,44.6,1341.7,607.1,2241.6,299.2,319.8,1318.4,2258.7,194.8,72.8,37.5
0.152000,319.8,39.2,1334.6,493.4,2254.7,239.1,320.5,1325.6,2256.2,194.8,72.9,37.7
0.154000,319.5,36.6,1337.7,429.3,2269.4,206.0,321.1,1333.9,2254.1,194.8,72.9,37.7
0.156000,319.3,36.1,1345.8,401.9,2280.1,196.7,321.8,1343.5,2252.5,194.8,72.9,37.5
0.158000,319.4,36.7,1352.9,402.8,2282.0,207.4,322.4,1354.4,2251.6,194.8,72.9,36.9
0.160000,319.7,37.8,1358.5,426.4,2274.5,236.3,323.1,1366.8,2251.3,194.7,72.9,36.1
0.162000,320.3,39.5,1366.5,468.9,2261.6,280.0,323.7,1380.6,2251.9,194.7,72.9,35.3
0.164000,320.9,40.9,1380.4,509.8,2256.0,315.3,324.2,1395.9,2253.4,194.7,72.9,34.7
0.166000,321.4,41.4,1401.0,536.2,2261.9,327.9,324.7,1412.6,2255.9,194.7,72.9,34.3
0.168000,321.9,40.8,1423.6,545.7,2270.4,322.6,325.1,1430.9,2259.4,194.7,73,34.3
0.170000,322.6,39.4,1445.0,544.5,2275.9,308.9,325.4,1450.6,2264,194.6,73,34.3
0.172000,323.3,37.6,1459.4,538.5,2278.2,293.2,325.7,1471.7,2269.7,194.6,73,34.4
0.174000,324.0,35.8,1469.0,525.7,2280.1,277.4,325.9,1494,2276.4,194.5,73.1,34.4
0.176000,324.8,33.9,1482.2,493.4,2284.5,264.6,326,1517.5,2284.1,194.5,73.1,34.1
0.178000,325.5,32.3,1506.0,440.6,2293.3,260.1,326,1541.9,2292.7,194.4,73.2,33.7
0.180000,326.5,31.8,1540.6,383.9,2305.9,268.5,326,1567.2,2302.2,194.3,73.3,33.1
0.182000,327.4,33.2,1577.9,350.4,2317.8,297.8,325.8,1593,2312.4,194.2,73.3,32.5
0.184000,328.3,36.0,1616.9,337.5,2326.9,352.1,325.7,1619.1,2323.2,194.1,73.4,32
0.186000,328.9,38.8,1656.1,330.8,2331.6,420.0,325.4,1645.4,2334.5,194,73.4,31.7
0.188000,329.3,40.2,1688.4,322.5,2333.2,465.0,325.1,1671.5,2346.1,193.8,73.4,31.8
0.190000,329.4,40.1,1716.7,310.5,2336.3,477.3,324.8,1697.2,2357.8,193.7,73.4,31.9
0.192000,329.3,39.0,1741.1,292.4,2343.9,475.9,324.5,1722.1,2369.5,193.5,73.5,32
0.194000,329.2,37.3,1763.4,263.4,2355.2,479.4,324.1,1746.1,2380.9,193.3,73.5,31.9
0.196000,329.0,35.9,1780.3,229.0,2365.6,490.3,323.7,1768.8,2392,193.1,73.5,31.3
0.198000,328.6,34.8,1792.1,195.3,2373.0,503.6,323.4,1789.9,2402.4,192.9,73.5,30.7
0.200000,328.0,34.1,1800.2,168.2,2376.1,513.0,323,1809.2,2412.1,192.7,73.4,29.8
0.202000,327.0,33.8,1806.4,154.6,2378.7,515.9,322.7,1826.5,2420.8,192.5,73.3,28.6
0.204000,325.6,34.4,1815.6,155.2,2393.2,517.3,322.4,1841.5,2428.5,192.2,73.2,26.9
0.206000,324.0,37.3,1833.7,169.2,2434.9,518.0,322.1,1854.1,2435,192,72.9,24.6
0.208000,321.7,42.2,1863.2,190.8,2490.6,474.0,321.9,1864,2440.1,191.7,72.5,21.1
0.210000,318.1,46.1,1892.9,209.9,2507.3,366.9,321.8,1871.2,2443.8,191.5,71.9,17.1
0.212000,312.2,47.6,1905.4,211.9,2491.8,263.3,321.7,1875.6,2446.1,191.3,71.2,13.3
0.214000,300.9,48.4,1900.8,195.3,2474.6,184.0,321.6,1877,2446.9,191,70.5,10.4
